0.973	0.826	-0.147	-0.899	0.560	0.339	0.883	0.842	0.890	0.895	1.046	1.136
1.277	1.339	0.062	-1.308	0.607	0.700	1.327	1.229	1.232	1.216	1.314	1.358
1.365	1.443	0.078	-1.404	0.643	0.760	1.417	1.307	1.311	1.288	1.374	1.411
1.385	1.467	0.082	-1.426	0.651	0.774	1.434	1.323	1.329	1.304	1.388	1.425
1.388	1.473	0.085	-1.430	0.651	0.779	1.439	1.327	1.336	1.310	1.393	1.431
1.390	1.475	0.085	-1.432	0.652	0.780	1.445	1.333	1.342	1.316	1.399	1.438
1.392	1.475	0.083	-1.433	0.654	0.779	1.451	1.339	1.349	1.322	1.405	1.444
1.393	1.476	0.083	-1.434	0.655	0.779	1.457	1.345	1.354	1.327	1.410	1.448
1.393	1.476	0.083	-1.434	0.655	0.779	1.459	1.346	1.355	1.328	1.410	1.449
1.393	1.476	0.083	-1.434	0.655	0.779	1.457	1.344	1.353	1.325	1.407	1.445
1.393	1.476	0.083	-1.434	0.655	0.779	1.452	1.339	1.347	1.320	1.401	1.439
1.393	1.477	0.084	-1.435	0.654	0.780	1.446	1.333	1.342	1.314	1.396	1.434
1.394	1.477	0.083	-1.435	0.655	0.780	1.443	1.330	1.339	1.312	1.395	1.433
1.394	1.477	0.083	-1.435	0.655	0.780	1.444	1.332	1.342	1.315	1.398	1.437
1.394	1.477	0.083	-1.435	0.655	0.780	1.450	1.338	1.348	1.321	1.404	1.443
1.394	1.477	0.083	-1.435	0.655	0.780	1.456	1.344	1.354	1.327	1.410	1.448
1.393	1.477	0.084	-1.435	0.654	0.780	1.459	1.347	1.356	1.329	1.412	1.450
1.393	1.477	0.084	-1.435	0.654	0.780	1.459	1.346	1.354	1.327	1.409	1.447
1.393	1.477	0.084	-1.435	0.654	0.780	1.454	1.341	1.349	1.322	1.404	1.441
1.394	1.477	0.083	-1.435	0.655	0.780	1.448	1.335	1.344	1.316	1.399	1.436
1.393	1.477	0.084	-1.435	0.654	0.780	1.444	1.331	1.340	1.313	1.395	1.433
1.393	1.477	0.084	-1.435	0.654	0.780	1.444	1.331	1.341	1.314	1.397	1.435
1.393	1.477	0.084	-1.435	0.654	0.780	1.448	1.336	1.346	1.319	1.402	1.441
1.393	1.477	0.084	-1.435	0.654	0.780	1.454	1.342	1.351	1.325	1.408	1.446
1.393	1.477	0.084	-1.435	0.654	0.780	1.459	1.346	1.355	1.328	1.410	1.449
1.394	1.477	0.083	-1.435	0.655	0.780	1.459	1.346	1.354	1.327	1.409	1.447
1.395	1.477	0.082	-1.436	0.656	0.779	1.455	1.342	1.351	1.323	1.405	1.443
1.394	1.477	0.083	-1.435	0.655	0.780	1.449	1.336	1.344	1.317	1.399	1.437
1.394	1.477	0.083	-1.435	0.655	0.780	1.444	1.331	1.340	1.312	1.395	1.433
1.392	1.477	0.085	-1.434	0.653	0.781	1.442	1.330	1.339	1.312	1.395	1.433
1.392	1.477	0.085	-1.434	0.653	0.781	1.445	1.333	1.343	1.316	1.400	1.438
1.393	1.477	0.084	-1.435	0.654	0.780	1.451	1.339	1.348	1.322	1.405	1.443
1.394	1.477	0.083	-1.435	0.655	0.780	1.456	1.343	1.352	1.326	1.408	1.447
1.394	1.477	0.083	-1.435	0.655	0.780	1.457	1.345	1.354	1.326	1.408	1.447
1.394	1.477	0.083	-1.435	0.655	0.780	1.455	1.341	1.350	1.322	1.404	1.443
1.395	1.477	0.082	-1.436	0.656	0.779	1.448	1.335	1.343	1.316	1.398	1.436
1.394	1.477	0.083	-1.435	0.655	0.780	1.442	1.329	1.338	1.310	1.392	1.430
1.394	1.477	0.083	-1.435	0.655	0.780	1.438	1.326	1.335	1.308	1.391	1.429
1.392	1.477	0.085	-1.434	0.653	0.781	1.440	1.328	1.338	1.311	1.394	1.433
1.392	1.477	0.085	-1.434	0.653	0.781	1.446	1.334	1.343	1.317	1.400	1.438
1.394	1.477	0.083	-1.435	0.655	0.780	1.450	1.338	1.348	1.321	1.405	1.443
1.395	1.477	0.082	-1.436	0.656	0.779	1.454	1.341	1.350	1.324	1.406	1.445
1.394	1.477	0.083	-1.435	0.655	0.780	1.453	1.341	1.349	1.322	1.404	1.442
1.393	1.478	0.085	-1.435	0.654	0.781	1.449	1.336	1.344	1.316	1.398	1.436
1.394	1.477	0.083	-1.435	0.655	0.780	1.441	1.328	1.336	1.309	1.391	1.428
1.394	1.477	0.083	-1.435	0.655	0.780	1.435	1.323	1.331	1.304	1.387	1.425
1.393	1.477	0.084	-1.435	0.654	0.780	1.435	1.322	1.332	1.305	1.388	1.427
1.393	1.478	0.085	-1.435	0.654	0.781	1.439	1.327	1.336	1.310	1.393	1.432
1.393	1.477	0.084	-1.435	0.654	0.780	1.444	1.332	1.342	1.315	1.399	1.437
1.392	1.477	0.085	-1.434	0.653	0.781	1.448	1.336	1.345	1.318	1.401	1.439
1.394	1.477	0.083	-1.435	0.655	0.780	1.448	1.335	1.344	1.317	1.399	1.437
1.395	1.477	0.082	-1.436	0.656	0.779	1.444	1.331	1.340	1.312	1.394	1.432
1.394	1.477	0.083	-1.435	0.655	0.780	1.438	1.325	1.334	1.306	1.388	1.425
1.393	1.477	0.084	-1.435	0.654	0.780	1.432	1.319	1.328	1.301	1.383	1.421
1.393	1.478	0.085	-1.435	0.654	0.781	1.429	1.317	1.326	1.299	1.382	1.420
1.393	1.477	0.084	-1.435	0.654	0.780	1.432	1.319	1.329	1.303	1.386	1.424
1.393	1.477	0.084	-1.435	0.654	0.780	1.437	1.324	1.334	1.308	1.391	1.429
1.394	1.477	0.083	-1.435	0.655	0.780	1.441	1.328	1.338	1.311	1.394	1.432
1.394	1.477	0.083	-1.435	0.655	0.780	1.442	1.329	1.338	1.311	1.393	1.431
1.394	1.477	0.083	-1.435	0.655	0.780	1.438	1.325	1.334	1.306	1.388	1.426
1.393	1.477	0.084	-1.435	0.654	0.780	1.431	1.318	1.326	1.298	1.380	1.417
1.394	1.477	0.083	-1.435	0.655	0.780	1.423	1.309	1.318	1.290	1.372	1.410
1.394	1.477	0.083	-1.435	0.655	0.780	1.416	1.303	1.312	1.285	1.367	1.405
1.393	1.477	0.084	-1.435	0.654	0.780	1.415	1.302	1.312	1.284	1.367	1.405
1.392	1.478	0.086	-1.435	0.653	0.782	1.416	1.303	1.313	1.286	1.368	1.406
1.393	1.477	0.084	-1.435	0.654	0.780	1.416	1.303	1.313	1.285	1.367	1.405
1.393	1.477	0.084	-1.435	0.654	0.780	1.413	1.300	1.309	1.282	1.363	1.401
1.394	1.477	0.083	-1.435	0.655	0.780	1.408	1.294	1.303	1.275	1.357	1.395
1.395	1.477	0.082	-1.436	0.656	0.779	1.400	1.287	1.296	1.268	1.349	1.387
1.395	1.477	0.082	-1.436	0.656	0.779	1.393	1.279	1.288	1.260	1.342	1.380
1.395	1.477	0.082	-1.436	0.656	0.779	1.387	1.274	1.284	1.256	1.339	1.376
1.394	1.477	0.083	-1.435	0.655	0.780	1.387	1.274	1.285	1.258	1.341	1.379
1.394	1.477	0.083	-1.435	0.655	0.780	1.392	1.280	1.291	1.264	1.347	1.386
1.394	1.477	0.083	-1.435	0.655	0.780	1.399	1.287	1.298	1.271	1.355	1.392
1.393	1.477	0.084	-1.435	0.654	0.780	1.406	1.293	1.303	1.276	1.359	1.397
1.392	1.477	0.085	-1.434	0.653	0.781	1.408	1.295	1.304	1.277	1.360	1.397
1.392	1.477	0.085	-1.434	0.653	0.781	1.406	1.293	1.302	1.274	1.357	1.394
1.393	1.477	0.084	-1.435	0.654	0.780	1.401	1.287	1.297	1.269	1.351	1.388
1.394	1.478	0.084	-1.436	0.655	0.781	1.396	1.283	1.292	1.264	1.347	1.384
1.395	1.477	0.082	-1.436	0.656	0.779	1.394	1.281	1.291	1.264	1.347	1.385
1.395	1.478	0.083	-1.436	0.656	0.780	1.397	1.285	1.296	1.269	1.352	1.390
1.395	1.477	0.082	-1.436	0.656	0.779	1.404	1.292	1.302	1.275	1.359	1.397
1.395	1.478	0.083	-1.436	0.656	0.780	1.410	1.298	1.308	1.281	1.364	1.402
1.393	1.477	0.084	-1.435	0.654	0.780	1.413	1.300	1.310	1.282	1.365	1.402
1.392	1.477	0.085	-1.434	0.653	0.781	1.411	1.298	1.308	1.280	1.362	1.400
1.392	1.477	0.085	-1.434	0.653	0.781	1.407	1.293	1.302	1.274	1.357	1.394
1.393	1.478	0.085	-1.435	0.654	0.781	1.401	1.288	1.297	1.269	1.351	1.389
1.394	1.478	0.084	-1.436	0.655	0.781	1.397	1.284	1.294	1.267	1.350	1.387
1.394	1.478	0.084	-1.436	0.655	0.781	1.399	1.286	1.297	1.270	1.353	1.391
1.395	1.478	0.083	-1.436	0.656	0.780	1.405	1.293	1.303	1.276	1.359	1.398
1.394	1.478	0.084	-1.436	0.655	0.781	1.411	1.298	1.308	1.282	1.365	1.403
1.393	1.477	0.084	-1.435	0.654	0.780	1.414	1.301	1.311	1.284	1.366	1.404
1.393	1.476	0.083	-1.434	0.655	0.779	1.414	1.301	1.310	1.283	1.365	1.402
1.394	1.477	0.083	-1.435	0.655	0.780	1.410	1.296	1.305	1.277	1.359	1.397
1.393	1.477	0.084	-1.435	0.654	0.780	1.404	1.290	1.299	1.272	1.354	1.392
1.393	1.477	0.084	-1.435	0.654	0.780	1.399	1.286	1.296	1.268	1.351	1.388
1.393	1.477	0.084	-1.435	0.654	0.780	1.399	1.287	1.297	1.270	1.353	1.391
1.393	1.477	0.084	-1.435	0.654	0.780	1.403	1.292	1.302	1.275	1.358	1.396
1.395	1.478	0.083	-1.436	0.656	0.780	1.410	1.297	1.308	1.281	1.364	1.402
1.395	1.478	0.083	-1.436	0.656	0.780	1.414	1.302	1.311	1.285	1.367	1.405
1.394	1.477	0.083	-1.435	0.655	0.780	1.415	1.302	1.311	1.284	1.367	1.404
1.393	1.477	0.084	-1.435	0.654	0.780	1.413	1.299	1.308	1.281	1.363	1.400
1.393	1.478	0.085	-1.435	0.654	0.781	1.407	1.294	1.303	1.275	1.357	1.394
1.395	1.478	0.083	-1.436	0.656	0.780	1.401	1.288	1.298	1.270	1.352	1.390
1.394	1.478	0.084	-1.436	0.655	0.781	1.399	1.286	1.296	1.269	1.352	1.390
1.393	1.477	0.084	-1.435	0.654	0.780	1.403	1.290	1.300	1.274	1.357	1.395
1.392	1.477	0.085	-1.434	0.653	0.781	1.408	1.296	1.306	1.279	1.363	1.401
1.394	1.477	0.083	-1.435	0.655	0.780	1.414	1.301	1.312	1.285	1.368	1.406
1.392	1.478	0.086	-1.435	0.653	0.782	1.417	1.304	1.313	1.286	1.368	1.406
1.393	1.477	0.084	-1.435	0.654	0.780	1.414	1.301	1.310	1.282	1.365	1.402
1.396	1.477	0.081	-1.436	0.657	0.779	1.409	1.295	1.304	1.276	1.358	1.396
1.396	1.478	0.082	-1.437	0.657	0.780	1.403	1.290	1.299	1.272	1.354	1.391
1.395	1.478	0.083	-1.436	0.656	0.780	1.400	1.287	1.297	1.269	1.352	1.390
1.394	1.478	0.084	-1.436	0.655	0.781	1.401	1.289	1.299	1.272	1.355	1.393
1.394	1.477	0.083	-1.435	0.655	0.780	1.406	1.294	1.304	1.277	1.361	1.399
1.393	1.477	0.084	-1.435	0.654	0.780	1.412	1.300	1.310	1.283	1.366	1.404
1.394	1.477	0.083	-1.435	0.655	0.780	1.416	1.303	1.313	1.286	1.368	1.406
1.394	1.478	0.084	-1.436	0.655	0.781	1.415	1.302	1.311	1.284	1.367	1.404
1.393	1.477	0.084	-1.435	0.654	0.780	1.412	1.298	1.307	1.279	1.361	1.399
1.393	1.477	0.084	-1.435	0.654	0.780	1.405	1.292	1.301	1.274	1.356	1.393
1.392	1.477	0.085	-1.434	0.653	0.781	1.401	1.288	1.297	1.270	1.352	1.390
1.393	1.477	0.084	-1.435	0.654	0.780	1.400	1.288	1.298	1.271	1.354	1.392
1.394	1.477	0.083	-1.435	0.655	0.780	1.404	1.292	1.302	1.275	1.359	1.397
1.393	1.477	0.084	-1.435	0.654	0.780	1.411	1.298	1.308	1.282	1.365	1.403
1.395	1.479	0.084	-1.437	0.655	0.781	1.416	1.303	1.313	1.286	1.369	1.407
1.393	1.477	0.084	-1.435	0.654	0.780	1.416	1.303	1.313	1.285	1.367	1.405
1.392	1.475	0.083	-1.433	0.654	0.779	1.413	1.299	1.308	1.281	1.363	1.400
1.394	1.477	0.083	-1.435	0.655	0.780	1.407	1.294	1.303	1.275	1.357	1.395
1.396	1.479	0.083	-1.437	0.656	0.781	1.402	1.289	1.298	1.271	1.353	1.391
1.395	1.478	0.083	-1.436	0.656	0.780	1.400	1.287	1.297	1.270	1.352	1.390
1.393	1.477	0.084	-1.435	0.654	0.780	1.402	1.290	1.300	1.273	1.357	1.395
1.393	1.477	0.084	-1.435	0.654	0.780	1.408	1.296	1.306	1.279	1.363	1.401
1.393	1.478	0.085	-1.435	0.654	0.781	1.414	1.301	1.311	1.284	1.367	1.405
1.394	1.478	0.084	-1.436	0.655	0.781	1.416	1.303	1.313	1.285	1.368	1.405
1.393	1.477	0.084	-1.435	0.654	0.780	1.414	1.301	1.310	1.283	1.365	1.402
1.393	1.477	0.084	-1.435	0.654	0.780	1.409	1.295	1.305	1.277	1.359	1.396
1.394	1.478	0.084	-1.436	0.655	0.781	1.403	1.290	1.299	1.271	1.354	1.391
1.394	1.478	0.084	-1.436	0.655	0.781	1.399	1.286	1.296	1.268	1.351	1.389
1.394	1.477	0.083	-1.435	0.655	0.780	1.400	1.287	1.297	1.270	1.354	1.392
1.393	1.476	0.083	-1.434	0.655	0.779	1.405	1.292	1.302	1.276	1.359	1.397
1.392	1.476	0.084	-1.434	0.654	0.780	1.410	1.298	1.308	1.282	1.365	1.403
1.396	1.480	0.084	-1.438	0.656	0.782	1.415	1.303	1.312	1.285	1.368	1.405
1.397	1.479	0.082	-1.438	0.657	0.780	1.415	1.301	1.310	1.283	1.365	1.402
1.393	1.476	0.083	-1.434	0.655	0.779	1.410	1.297	1.305	1.277	1.360	1.396
1.392	1.476	0.084	-1.434	0.654	0.780	1.403	1.290	1.299	1.272	1.354	1.391
1.393	1.477	0.084	-1.435	0.654	0.780	1.399	1.286	1.295	1.268	1.350	1.388
1.394	1.478	0.084	-1.436	0.655	0.781	1.398	1.285	1.295	1.269	1.352	1.390
1.393	1.478	0.085	-1.435	0.654	0.781	1.402	1.290	1.300	1.273	1.357	1.395
1.393	1.477	0.084	-1.435	0.654	0.780	1.407	1.295	1.305	1.278	1.362	1.400
1.394	1.477	0.083	-1.435	0.655	0.780	1.412	1.299	1.309	1.282	1.365	1.402
1.394	1.477	0.083	-1.435	0.655	0.780	1.413	1.300	1.309	1.281	1.364	1.401
1.394	1.477	0.083	-1.435	0.655	0.780	1.409	1.296	1.305	1.278	1.359	1.397
1.394	1.478	0.084	-1.436	0.655	0.781	1.403	1.290	1.299	1.271	1.353	1.390
1.394	1.478	0.084	-1.436	0.655	0.781	1.398	1.284	1.294	1.266	1.348	1.386
1.393	1.478	0.085	-1.435	0.654	0.781	1.395	1.282	1.291	1.264	1.347	1.385
1.393	1.477	0.084	-1.435	0.654	0.780	1.396	1.284	1.294	1.267	1.351	1.388
1.394	1.478	0.084	-1.436	0.655	0.781	1.402	1.289	1.299	1.272	1.356	1.394
1.394	1.477	0.083	-1.435	0.655	0.780	1.406	1.294	1.303	1.276	1.359	1.397
1.393	1.476	0.083	-1.434	0.655	0.779	1.408	1.295	1.304	1.277	1.360	1.397
1.393	1.477	0.084	-1.435	0.654	0.780	1.406	1.292	1.301	1.274	1.356	1.393
1.394	1.477	0.083	-1.435	0.655	0.780	1.400	1.287	1.295	1.268	1.350	1.387
1.394	1.478	0.084	-1.436	0.655	0.781	1.393	1.280	1.289	1.261	1.343	1.381
1.394	1.478	0.084	-1.436	0.655	0.781	1.389	1.275	1.285	1.258	1.340	1.378
1.393	1.477	0.084	-1.435	0.654	0.780	1.389	1.276	1.286	1.259	1.342	1.380
1.393	1.477	0.084	-1.435	0.654	0.780	1.392	1.280	1.290	1.264	1.347	1.384
1.393	1.477	0.084	-1.435	0.654	0.780	1.397	1.284	1.295	1.268	1.351	1.388
1.393	1.477	0.084	-1.435	0.654	0.780	1.400	1.287	1.297	1.269	1.352	1.390
1.394	1.478	0.084	-1.436	0.655	0.781	1.399	1.286	1.295	1.267	1.350	1.387
1.394	1.478	0.084	-1.436	0.655	0.781	1.394	1.281	1.290	1.262	1.344	1.381
1.394	1.478	0.084	-1.436	0.655	0.781	1.387	1.273	1.283	1.255	1.337	1.374
1.393	1.477	0.084	-1.435	0.654	0.780	1.381	1.268	1.277	1.250	1.332	1.370
1.392	1.477	0.085	-1.434	0.653	0.781	1.379	1.266	1.276	1.249	1.332	1.370
1.394	1.477	0.083	-1.435	0.655	0.780	1.382	1.269	1.279	1.253	1.336	1.374
1.395	1.478	0.083	-1.436	0.656	0.780	1.386	1.274	1.284	1.257	1.340	1.378
1.394	1.478	0.084	-1.436	0.655	0.781	1.390	1.277	1.287	1.260	1.343	1.380
1.393	1.477	0.084	-1.435	0.654	0.780	1.390	1.277	1.286	1.259	1.341	1.378
1.393	1.477	0.084	-1.435	0.654	0.780	1.386	1.273	1.282	1.254	1.337	1.374
1.393	1.477	0.084	-1.435	0.654	0.780	1.380	1.266	1.275	1.248	1.330	1.367
1.394	1.477	0.083	-1.435	0.655	0.780	1.373	1.260	1.270	1.242	1.324	1.361
1.394	1.478	0.084	-1.436	0.655	0.781	1.370	1.257	1.267	1.240	1.322	1.360
1.394	1.477	0.083	-1.435	0.655	0.780	1.371	1.259	1.269	1.242	1.326	1.363
1.394	1.477	0.083	-1.435	0.655	0.780	1.376	1.264	1.274	1.247	1.330	1.368
1.393	1.477	0.084	-1.435	0.654	0.780	1.381	1.268	1.278	1.251	1.334	1.372
1.393	1.477	0.084	-1.435	0.654	0.780	1.383	1.270	1.279	1.252	1.334	1.372
1.393	1.477	0.084	-1.435	0.654	0.780	1.380	1.267	1.277	1.249	1.331	1.368
1.394	1.477	0.083	-1.435	0.655	0.780	1.376	1.262	1.271	1.243	1.325	1.362
1.394	1.478	0.084	-1.436	0.655	0.781	1.370	1.256	1.266	1.238	1.320	1.357
1.394	1.478	0.084	-1.436	0.655	0.781	1.366	1.253	1.262	1.234	1.317	1.354
1.394	1.477	0.083	-1.435	0.655	0.780	1.366	1.254	1.264	1.236	1.320	1.357
1.394	1.478	0.084	-1.436	0.655	0.781	1.371	1.259	1.270	1.242	1.325	1.363
1.394	1.478	0.084	-1.436	0.655	0.781	1.376	1.264	1.275	1.247	1.330	1.368
1.394	1.478	0.084	-1.436	0.655	0.781	1.380	1.268	1.278	1.250	1.333	1.370
1.394	1.478	0.084	-1.436	0.655	0.781	1.380	1.267	1.277	1.249	1.331	1.368
1.394	1.478	0.084	-1.436	0.655	0.781	1.376	1.263	1.272	1.245	1.327	1.364
1.394	1.478	0.084	-1.436	0.655	0.781	1.370	1.257	1.266	1.240	1.322	1.359
1.394	1.478	0.084	-1.436	0.655	0.781	1.365	1.252	1.262	1.237	1.320	1.356
1.394	1.478	0.084	-1.436	0.655	0.781	1.363	1.250	1.261	1.239	1.322	1.359
1.394	1.479	0.085	-1.436	0.654	0.782	1.367	1.254	1.265	1.243	1.327	1.364
1.394	1.479	0.085	-1.436	0.654	0.782	1.373	1.260	1.271	1.249	1.333	1.370
1.394	1.479	0.085	-1.436	0.654	0.782	1.378	1.265	1.276	1.253	1.337	1.373
1.394	1.479	0.085	-1.436	0.654	0.782	1.381	1.267	1.277	1.253	1.336	1.373
1.394	1.478	0.084	-1.436	0.655	0.781	1.379	1.265	1.274	1.250	1.332	1.369
1.394	1.477	0.083	-1.435	0.655	0.780	1.375	1.261	1.269	1.243	1.325	1.363
1.393	1.477	0.084	-1.435	0.654	0.780	1.371	1.256	1.265	1.238	1.321	1.358
1.393	1.477	0.084	-1.435	0.654	0.780	1.369	1.255	1.263	1.235	1.319	1.357
1.392	1.476	0.084	-1.434	0.654	0.780	1.373	1.258	1.267	1.238	1.322	1.361
1.390	1.476	0.086	-1.433	0.652	0.781	1.378	1.264	1.273	1.244	1.328	1.366
1.392	1.477	0.085	-1.434	0.653	0.781	1.382	1.270	1.279	1.249	1.332	1.370
1.393	1.477	0.084	-1.435	0.654	0.780	1.385	1.271	1.280	1.249	1.333	1.371
1.392	1.476	0.084	-1.434	0.654	0.780	1.383	1.269	1.278	1.246	1.330	1.368
1.393	1.476	0.083	-1.434	0.655	0.779	1.378	1.264	1.273	1.242	1.325	1.362
1.394	1.476	0.082	-1.435	0.656	0.779	1.373	1.258	1.268	1.239	1.321	1.358
1.394	1.476	0.082	-1.435	0.656	0.779	1.369	1.255	1.265	1.237	1.319	1.356
1.395	1.477	0.082	-1.436	0.656	0.779	1.369	1.256	1.267	1.239	1.322	1.359
1.394	1.477	0.083	-1.435	0.655	0.780	1.373	1.261	1.272	1.245	1.327	1.365
1.394	1.477	0.083	-1.435	0.655	0.780	1.378	1.266	1.277	1.250	1.333	1.370
1.394	1.477	0.083	-1.435	0.655	0.780	1.382	1.270	1.280	1.253	1.335	1.373
1.394	1.476	0.082	-1.435	0.656	0.779	1.383	1.270	1.280	1.252	1.334	1.371
1.393	1.476	0.083	-1.434	0.655	0.779	1.380	1.266	1.276	1.248	1.330	1.367
1.393	1.477	0.084	-1.435	0.654	0.780	1.375	1.261	1.271	1.243	1.325	1.362
1.394	1.478	0.084	-1.436	0.655	0.781	1.370	1.257	1.267	1.239	1.322	1.359
1.394	1.477	0.083	-1.435	0.655	0.780	1.369	1.256	1.267	1.240	1.323	1.360
1.394	1.478	0.084	-1.436	0.655	0.781	1.373	1.261	1.271	1.244	1.327	1.365
1.394	1.477	0.083	-1.435	0.655	0.780	1.378	1.266	1.277	1.249	1.333	1.370
1.394	1.477	0.083	-1.435	0.655	0.780	1.383	1.270	1.281	1.254	1.336	1.374
1.394	1.478	0.084	-1.436	0.655	0.781	1.384	1.272	1.282	1.254	1.336	1.374
1.394	1.478	0.084	-1.436	0.655	0.781	1.382	1.269	1.279	1.251	1.333	1.370
1.393	1.478	0.085	-1.435	0.654	0.781	1.376	1.264	1.273	1.246	1.328	1.364
1.394	1.478	0.084	-1.436	0.655	0.781	1.371	1.258	1.269	1.241	1.323	1.361
1.394	1.478	0.084	-1.436	0.655	0.781	1.369	1.256	1.267	1.240	1.322	1.360
1.394	1.478	0.084	-1.436	0.655	0.781	1.371	1.259	1.270	1.243	1.326	1.364
1.394	1.478	0.084	-1.436	0.655	0.781	1.376	1.264	1.275	1.248	1.332	1.370
1.394	1.478	0.084	-1.436	0.655	0.781	1.382	1.270	1.280	1.253	1.337	1.374
1.394	1.477	0.083	-1.435	0.655	0.780	1.385	1.272	1.282	1.255	1.337	1.375
1.394	1.477	0.083	-1.435	0.655	0.780	1.384	1.271	1.280	1.253	1.335	1.372
1.393	1.477	0.084	-1.435	0.654	0.780	1.380	1.267	1.276	1.249	1.331	1.368
1.393	1.478	0.085	-1.435	0.654	0.781	1.375	1.262	1.271	1.244	1.326	1.363
1.394	1.478	0.084	-1.436	0.655	0.781	1.371	1.258	1.268	1.241	1.323	1.361
1.394	1.477	0.083	-1.435	0.655	0.780	1.372	1.259	1.270	1.243	1.326	1.364
1.393	1.477	0.084	-1.435	0.654	0.780	1.377	1.264	1.275	1.248	1.332	1.370
1.393	1.477	0.084	-1.435	0.654	0.780	1.383	1.270	1.281	1.254	1.337	1.375
1.393	1.477	0.084	-1.435	0.654	0.780	1.387	1.274	1.284	1.257	1.340	1.377
1.394	1.477	0.083	-1.435	0.655	0.780	1.386	1.273	1.283	1.256	1.338	1.375
1.394	1.478	0.084	-1.436	0.655	0.781	1.384	1.270	1.280	1.252	1.334	1.371
1.394	1.478	0.084	-1.436	0.655	0.781	1.379	1.265	1.275	1.247	1.329	1.366
1.394	1.478	0.084	-1.436	0.655	0.781	1.374	1.261	1.271	1.243	1.326	1.363
1.393	1.477	0.084	-1.435	0.654	0.780	1.373	1.260	1.270	1.243	1.326	1.364
1.394	1.477	0.083	-1.435	0.655	0.780	1.376	1.264	1.275	1.248	1.331	1.369
1.395	1.477	0.082	-1.436	0.656	0.779	1.382	1.270	1.280	1.253	1.337	1.375
1.394	1.478	0.084	-1.436	0.655	0.781	1.387	1.274	1.284	1.257	1.338	1.377
1.383	1.467	0.084	-1.425	0.649	0.775	1.379	1.264	1.272	1.246	1.319	1.364
1.320	1.410	0.090	-1.365	0.615	0.750	1.356	1.241	1.251	1.230	1.310	1.359
1.274	1.388	0.114	-1.331	0.580	0.751	1.351	1.241	1.256	1.239	1.338	1.371
1.258	1.395	0.137	-1.326	0.560	0.766	1.349	1.241	1.258	1.245	1.360	1.369
1.202	1.380	0.178	-1.291	0.512	0.779	1.347	1.243	1.261	1.247	1.380	1.366
1.205	1.403	0.198	-1.304	0.503	0.800	1.350	1.249	1.270	1.255	1.403	1.367
1.247	1.454	0.207	-1.350	0.520	0.830	1.370	1.271	1.297	1.287	1.429	1.372
1.306	1.502	0.196	-1.404	0.555	0.849	1.386	1.284	1.316	1.300	1.434	1.365
1.306	1.486	0.180	-1.396	0.563	0.833	1.378	1.275	1.310	1.285	1.407	1.343
1.280	1.444	0.164	-1.362	0.558	0.804	1.357	1.257	1.293	1.260	1.359	1.337
1.263	1.409	0.146	-1.336	0.558	0.777	1.348	1.252	1.289	1.252	1.337	1.343
1.232	1.377	0.145	-1.304	0.543	0.761	1.341	1.246	1.286	1.251	1.333	1.340
1.233	1.376	0.143	-1.304	0.545	0.759	1.331	1.240	1.281	1.247	1.334	1.326
1.260	1.394	0.134	-1.327	0.563	0.764	1.324	1.237	1.282	1.247	1.340	1.315
1.229	1.400	0.171	-1.314	0.529	0.785	1.340	1.256	1.308	1.272	1.365	1.332
1.211	1.429	0.218	-1.320	0.496	0.823	1.372	1.286	1.340	1.300	1.388	1.357
1.235	1.451	0.216	-1.343	0.509	0.833	1.386	1.300	1.358	1.317	1.401	1.374
1.193	1.420	0.227	-1.306	0.483	0.823	1.382	1.295	1.353	1.308	1.390	1.365
1.157	1.384	0.227	-1.270	0.465	0.805	1.368	1.288	1.350	1.307	1.390	1.367
1.163	1.399	0.236	-1.281	0.463	0.817	1.373	1.294	1.356	1.311	1.391	1.367
1.184	1.400	0.216	-1.292	0.484	0.808	1.361	1.281	1.343	1.297	1.377	1.352
1.203	1.395	0.192	-1.299	0.505	0.793	1.345	1.269	1.337	1.291	1.378	1.351
1.228	1.416	0.188	-1.322	0.520	0.802	1.347	1.272	1.346	1.298	1.386	1.353
1.256	1.433	0.177	-1.344	0.539	0.805	1.351	1.275	1.354	1.304	1.391	1.354
1.309	1.466	0.157	-1.387	0.576	0.811	1.356	1.279	1.363	1.309	1.394	1.352
1.322	1.459	0.137	-1.390	0.592	0.798	1.350	1.274	1.364	1.308	1.392	1.348
1.311	1.457	0.146	-1.384	0.582	0.801	1.353	1.279	1.373	1.315	1.402	1.358
1.239	1.432	0.193	-1.335	0.523	0.812	1.366	1.295	1.390	1.333	1.418	1.376
1.155	1.421	0.266	-1.288	0.444	0.843	1.386	1.317	1.413	1.354	1.433	1.389
1.147	1.432	0.285	-1.289	0.431	0.858	1.384	1.318	1.418	1.356	1.437	1.389
1.145	1.428	0.283	-1.286	0.431	0.855	1.374	1.311	1.415	1.352	1.443	1.390
1.178	1.441	0.263	-1.309	0.457	0.852	1.371	1.311	1.424	1.361	1.464	1.404
1.209	1.450	0.241	-1.329	0.484	0.845	1.375	1.319	1.439	1.373	1.487	1.422
1.213	1.440	0.227	-1.326	0.493	0.833	1.377	1.322	1.447	1.378	1.495	1.431
1.181	1.413	0.232	-1.297	0.474	0.822	1.373	1.320	1.448	1.376	1.498	1.420
1.159	1.386	0.227	-1.272	0.466	0.806	1.362	1.312	1.444	1.373	1.496	1.403
1.132	1.381	0.249	-1.256	0.441	0.815	1.362	1.317	1.452	1.380	1.481	1.398
1.143	1.418	0.275	-1.280	0.434	0.846	1.370	1.330	1.468	1.394	1.483	1.389
1.252	1.497	0.245	-1.374	0.503	0.871	1.375	1.339	1.479	1.396	1.459	1.382
1.325	1.523	0.198	-1.424	0.563	0.860	1.369	1.337	1.482	1.383	1.401	1.383
1.338	1.498	0.160	-1.418	0.589	0.829	1.357	1.328	1.479	1.374	1.383	1.379
1.313	1.462	0.149	-1.387	0.582	0.805	1.347	1.318	1.475	1.370	1.380	1.363
1.329	1.449	0.120	-1.389	0.604	0.784	1.334	1.310	1.476	1.370	1.384	1.368
1.325	1.451	0.126	-1.388	0.599	0.788	1.339	1.322	1.493	1.388	1.404	1.391
1.207	1.417	0.210	-1.312	0.498	0.813	1.352	1.342	1.516	1.415	1.440	1.418
1.114	1.417	0.303	-1.265	0.405	0.860	1.366	1.364	1.537	1.437	1.463	1.428
1.159	1.442	0.283	-1.300	0.438	0.862	1.357	1.357	1.533	1.431	1.459	1.414
1.212	1.459	0.247	-1.335	0.482	0.853	1.349	1.356	1.541	1.434	1.468	1.409
1.216	1.462	0.246	-1.339	0.485	0.854	1.352	1.365	1.555	1.446	1.482	1.413
1.195	1.467	0.272	-1.331	0.461	0.869	1.366	1.383	1.577	1.468	1.503	1.429
1.221	1.486	0.265	-1.353	0.478	0.875	1.371	1.392	1.588	1.476	1.506	1.431
1.205	1.459	0.254	-1.332	0.475	0.856	1.359	1.385	1.581	1.467	1.482	1.422
1.096	1.395	0.299	-1.245	0.398	0.847	1.348	1.381	1.580	1.468	1.467	1.426
1.036	1.387	0.351	-1.211	0.342	0.869	1.355	1.395	1.597	1.484	1.478	1.445
1.078	1.436	0.358	-1.257	0.360	0.897	1.361	1.405	1.607	1.495	1.493	1.455
1.196	1.521	0.325	-1.358	0.435	0.923	1.371	1.419	1.625	1.515	1.516	1.471
1.284	1.557	0.273	-1.420	0.505	0.915	1.369	1.415	1.620	1.507	1.508	1.455
1.239	1.477	0.238	-1.358	0.500	0.857	1.337	1.388	1.599	1.489	1.497	1.445
1.174	1.427	0.253	-1.300	0.460	0.840	1.333	1.392	1.609	1.504	1.520	1.467
1.199	1.481	0.282	-1.340	0.458	0.881	1.366	1.427	1.645	1.545	1.566	1.507
1.253	1.572	0.319	-1.412	0.467	0.945	1.404	1.467	1.683	1.584	1.605	1.534
1.229	1.594	0.365	-1.411	0.432	0.979	1.422	1.484	1.690	1.591	1.610	1.527
1.214	1.562	0.348	-1.388	0.433	0.955	1.397	1.461	1.663	1.567	1.583	1.504
1.207	1.534	0.327	-1.370	0.440	0.930	1.373	1.441	1.643	1.548	1.563	1.485
1.213	1.524	0.311	-1.368	0.451	0.917	1.361	1.429	1.634	1.540	1.553	1.481
1.214	1.523	0.309	-1.368	0.452	0.916	1.363	1.432	1.638	1.543	1.547	1.484
1.214	1.523	0.309	-1.368	0.452	0.916	1.366	1.435	1.639	1.543	1.543	1.485
1.188	1.500	0.312	-1.344	0.438	0.906	1.371	1.439	1.640	1.546	1.543	1.490
1.126	1.471	0.345	-1.298	0.390	0.908	1.382	1.447	1.641	1.550	1.532	1.489
1.097	1.456	0.359	-1.276	0.369	0.907	1.377	1.440	1.630	1.539	1.506	1.482
1.097	1.454	0.357	-1.275	0.370	0.905	1.365	1.426	1.609	1.520	1.485	1.470
1.122	1.464	0.342	-1.293	0.390	0.903	1.349	1.410	1.590	1.505	1.479	1.458
1.178	1.494	0.316	-1.336	0.431	0.905	1.345	1.404	1.582	1.502	1.486	1.457
1.188	1.497	0.309	-1.342	0.439	0.903	1.351	1.407	1.581	1.507	1.498	1.472
1.171	1.491	0.320	-1.331	0.425	0.905	1.364	1.413	1.586	1.515	1.512	1.488
1.166	1.497	0.331	-1.331	0.417	0.914	1.375	1.418	1.585	1.518	1.520	1.496
1.170	1.501	0.331	-1.335	0.419	0.916	1.378	1.414	1.571	1.509	1.515	1.489
1.171	1.492	0.321	-1.331	0.425	0.906	1.367	1.395	1.545	1.490	1.499	1.474
1.187	1.492	0.305	-1.339	0.441	0.898	1.353	1.375	1.518	1.469	1.483	1.459
1.185	1.480	0.295	-1.332	0.445	0.887	1.342	1.360	1.497	1.453	1.474	1.450
1.186	1.476	0.290	-1.331	0.448	0.883	1.338	1.351	1.480	1.440	1.467	1.441
1.194	1.476	0.282	-1.335	0.456	0.879	1.335	1.340	1.465	1.429	1.463	1.433
1.189	1.469	0.280	-1.329	0.454	0.874	1.342	1.338	1.459	1.426	1.464	1.434
1.148	1.453	0.305	-1.300	0.421	0.879	1.355	1.341	1.456	1.425	1.464	1.436
1.111	1.424	0.313	-1.267	0.399	0.868	1.351	1.325	1.430	1.402	1.440	1.415
1.116	1.394	0.278	-1.255	0.419	0.836	1.331	1.296	1.396	1.371	1.414	1.393
1.105	1.367	0.262	-1.236	0.421	0.814	1.319	1.277	1.368	1.348	1.395	1.378
1.097	1.359	0.262	-1.228	0.417	0.810	1.313	1.263	1.344	1.327	1.379	1.366
1.133	1.375	0.242	-1.254	0.445	0.808	1.310	1.253	1.327	1.311	1.373	1.360
1.155	1.384	0.229	-1.269	0.463	0.806	1.315	1.250	1.320	1.306	1.379	1.366
1.189	1.408	0.219	-1.298	0.485	0.813	1.331	1.254	1.318	1.304	1.386	1.375
1.229	1.408	0.179	-1.318	0.525	0.793	1.328	1.236	1.292	1.279	1.369	1.357
1.233	1.369	0.136	-1.301	0.548	0.752	1.301	1.198	1.249	1.239	1.340	1.329
1.213	1.325	0.112	-1.269	0.550	0.718	1.285	1.178	1.228	1.225	1.338	1.325
1.124	1.288	0.164	-1.206	0.480	0.726	1.294	1.183	1.227	1.229	1.356	1.330
1.058	1.289	0.231	-1.173	0.413	0.760	1.310	1.199	1.235	1.244	1.388	1.338
1.028	1.317	0.289	-1.172	0.369	0.803	1.330	1.218	1.248	1.258	1.412	1.342
0.988	1.324	0.336	-1.156	0.326	0.830	1.356	1.239	1.264	1.272	1.410	1.364
1.010	1.345	0.335	-1.177	0.337	0.840	1.383	1.257	1.279	1.284	1.394	1.390
1.082	1.398	0.316	-1.240	0.383	0.857	1.406	1.273	1.292	1.294	1.394	1.405
1.139	1.428	0.289	-1.283	0.425	0.858	1.413	1.270	1.282	1.282	1.385	1.376
1.109	1.371	0.262	-1.240	0.423	0.816	1.392	1.243	1.251	1.252	1.354	1.338
1.070	1.319	0.249	-1.194	0.410	0.784	1.371	1.218	1.223	1.222	1.305	1.319
1.068	1.305	0.237	-1.186	0.415	0.771	1.358	1.204	1.206	1.204	1.280	1.314
1.066	1.319	0.253	-1.192	0.406	0.786	1.360	1.204	1.201	1.199	1.282	1.320
1.090	1.340	0.250	-1.215	0.420	0.795	1.359	1.200	1.195	1.195	1.290	1.319
1.115	1.355	0.240	-1.235	0.437	0.797	1.362	1.201	1.198	1.199	1.303	1.323
1.099	1.338	0.239	-1.218	0.430	0.788	1.373	1.209	1.208	1.211	1.321	1.337
1.049	1.309	0.260	-1.179	0.394	0.784	1.387	1.220	1.217	1.219	1.331	1.340
1.025	1.281	0.256	-1.153	0.384	0.768	1.383	1.210	1.203	1.206	1.318	1.325
1.040	1.275	0.235	-1.157	0.402	0.755	1.367	1.192	1.184	1.189	1.305	1.313
1.066	1.286	0.220	-1.176	0.423	0.753	1.361	1.185	1.173	1.181	1.301	1.309
1.065	1.288	0.223	-1.176	0.421	0.755	1.357	1.180	1.166	1.174	1.296	1.304
1.045	1.274	0.229	-1.159	0.408	0.751	1.350	1.172	1.158	1.165	1.292	1.300
1.033	1.265	0.232	-1.149	0.400	0.748	1.351	1.174	1.161	1.166	1.298	1.304
1.021	1.260	0.239	-1.140	0.391	0.749	1.353	1.175	1.160	1.163	1.298	1.300
1.006	1.240	0.234	-1.123	0.386	0.737	1.349	1.172	1.161	1.165	1.302	1.307
1.038	1.268	0.230	-1.153	0.404	0.749	1.366	1.187	1.178	1.183	1.318	1.322
1.084	1.303	0.219	-1.193	0.432	0.761	1.377	1.195	1.181	1.185	1.316	1.319
1.092	1.297	0.205	-1.194	0.443	0.751	1.372	1.189	1.173	1.178	1.308	1.311
1.082	1.279	0.197	-1.180	0.442	0.738	1.364	1.178	1.159	1.163	1.292	1.292
1.047	1.240	0.193	-1.143	0.427	0.716	1.345	1.159	1.141	1.144	1.276	1.276
1.045	1.239	0.194	-1.142	0.425	0.716	1.336	1.153	1.138	1.142	1.276	1.277
1.075	1.260	0.185	-1.167	0.445	0.722	1.338	1.156	1.143	1.145	1.279	1.279
1.089	1.258	0.169	-1.173	0.460	0.713	1.337	1.155	1.143	1.145	1.281	1.279
1.103	1.259	0.156	-1.181	0.473	0.707	1.343	1.160	1.149	1.150	1.289	1.289
1.121	1.274	0.153	-1.197	0.484	0.713	1.351	1.166	1.153	1.151	1.286	1.288
1.121	1.275	0.154	-1.198	0.483	0.714	1.350	1.166	1.154	1.155	1.287	1.294
1.081	1.289	0.208	-1.185	0.436	0.748	1.367	1.184	1.171	1.172	1.305	1.308
1.049	1.299	0.250	-1.174	0.399	0.774	1.380	1.199	1.182	1.181	1.312	1.312
1.000	1.284	0.284	-1.142	0.358	0.784	1.380	1.201	1.184	1.183	1.316	1.316
0.998	1.286	0.288	-1.142	0.355	0.787	1.380	1.201	1.188	1.185	1.321	1.320
1.024	1.302	0.278	-1.163	0.373	0.790	1.381	1.202	1.192	1.187	1.325	1.323
1.058	1.313	0.255	-1.185	0.401	0.784	1.383	1.205	1.196	1.192	1.326	1.324
1.077	1.306	0.229	-1.191	0.424	0.767	1.381	1.201	1.190	1.184	1.313	1.311
1.105	1.291	0.186	-1.198	0.459	0.738	1.362	1.181	1.168	1.161	1.285	1.282
1.148	1.261	0.113	-1.204	0.517	0.687	1.329	1.147	1.133	1.125	1.251	1.248
1.178	1.234	0.056	-1.206	0.561	0.645	1.300	1.119	1.108	1.102	1.230	1.230
1.189	1.228	0.039	-1.208	0.575	0.633	1.291	1.116	1.108	1.106	1.241	1.245
1.105	1.235	0.130	-1.170	0.487	0.682	1.327	1.157	1.154	1.154	1.299	1.305
1.009	1.280	0.271	-1.144	0.369	0.775	1.390	1.221	1.217	1.216	1.361	1.365
0.960	1.308	0.348	-1.134	0.306	0.828	1.420	1.248	1.240	1.235	1.374	1.373
0.976	1.300	0.324	-1.138	0.326	0.812	1.410	1.235	1.229	1.222	1.357	1.358
1.007	1.293	0.286	-1.150	0.360	0.789	1.399	1.223	1.219	1.211	1.345	1.342
1.011	1.285	0.274	-1.148	0.368	0.779	1.387	1.213	1.204	1.198	1.330	1.321
1.008	1.276	0.268	-1.142	0.370	0.772	1.373	1.201	1.194	1.188	1.319	1.310
1.008	1.281	0.273	-1.144	0.367	0.777	1.368	1.199	1.192	1.188	1.323	1.321
0.992	1.283	0.291	-1.137	0.350	0.787	1.370	1.205	1.199	1.196	1.336	1.341
0.970	1.273	0.303	-1.121	0.333	0.788	1.375	1.207	1.206	1.201	1.352	1.363
0.966	1.261	0.295	-1.113	0.335	0.778	1.381	1.214	1.217	1.215	1.383	1.391
0.953	1.252	0.299	-1.102	0.327	0.775	1.392	1.225	1.229	1.230	1.412	1.403
0.945	1.267	0.322	-1.106	0.311	0.794	1.405	1.238	1.240	1.241	1.434	1.395
0.975	1.303	0.328	-1.139	0.323	0.815	1.406	1.239	1.237	1.239	1.442	1.370
1.009	1.324	0.315	-1.166	0.347	0.819	1.391	1.224	1.220	1.223	1.416	1.335
1.019	1.308	0.289	-1.163	0.365	0.798	1.369	1.202	1.196	1.195	1.365	1.290
1.054	1.304	0.250	-1.179	0.402	0.777	1.346	1.183	1.178	1.176	1.325	1.256
1.086	1.316	0.230	-1.201	0.428	0.773	1.351	1.188	1.187	1.180	1.290	1.265
1.073	1.306	0.233	-1.189	0.420	0.769	1.362	1.200	1.197	1.183	1.255	1.282
1.058	1.302	0.244	-1.180	0.407	0.773	1.372	1.210	1.206	1.188	1.235	1.309
1.075	1.320	0.245	-1.197	0.415	0.782	1.380	1.218	1.214	1.196	1.242	1.327
1.104	1.341	0.237	-1.222	0.433	0.789	1.378	1.216	1.208	1.194	1.255	1.320
1.116	1.314	0.198	-1.215	0.459	0.756	1.365	1.202	1.193	1.181	1.258	1.306
1.106	1.295	0.189	-1.200	0.458	0.742	1.354	1.193	1.185	1.176	1.262	1.303
1.101	1.306	0.205	-1.203	0.448	0.755	1.350	1.193	1.183	1.176	1.271	1.302
1.071	1.302	0.231	-1.186	0.420	0.766	1.345	1.190	1.181	1.176	1.280	1.303
1.062	1.303	0.241	-1.182	0.410	0.772	1.347	1.193	1.187	1.182	1.292	1.310
1.057	1.288	0.231	-1.172	0.413	0.759	1.351	1.196	1.190	1.186	1.298	1.312
1.056	1.279	0.223	-1.167	0.416	0.751	1.351	1.196	1.188	1.185	1.298	1.310
1.067	1.282	0.215	-1.174	0.426	0.748	1.351	1.195	1.185	1.182	1.296	1.306
1.078	1.288	0.210	-1.183	0.434	0.749	1.351	1.192	1.181	1.179	1.296	1.307
1.082	1.288	0.206	-1.185	0.438	0.747	1.356	1.199	1.185	1.182	1.303	1.313
1.106	1.298	0.192	-1.202	0.457	0.745	1.360	1.205	1.188	1.185	1.310	1.319
1.128	1.322	0.194	-1.225	0.467	0.758	1.362	1.208	1.191	1.191	1.320	1.325
1.123	1.341	0.218	-1.232	0.452	0.779	1.367	1.215	1.199	1.200	1.331	1.334
1.126	1.360	0.234	-1.243	0.446	0.797	1.378	1.224	1.209	1.209	1.343	1.344
1.136	1.362	0.226	-1.249	0.455	0.794	1.384	1.228	1.212	1.212	1.344	1.341
1.113	1.331	0.218	-1.222	0.447	0.774	1.375	1.217	1.198	1.199	1.331	1.326
1.102	1.306	0.204	-1.204	0.449	0.755	1.360	1.201	1.181	1.183	1.313	1.310
1.087	1.285	0.198	-1.186	0.444	0.741	1.344	1.185	1.163	1.166	1.294	1.298
1.055	1.272	0.217	-1.163	0.419	0.744	1.338	1.181	1.157	1.162	1.292	1.300
1.044	1.273	0.229	-1.158	0.407	0.751	1.342	1.185	1.160	1.165	1.298	1.306
1.059	1.279	0.220	-1.169	0.419	0.749	1.346	1.189	1.166	1.172	1.312	1.319
1.061	1.298	0.237	-1.179	0.412	0.767	1.360	1.202	1.180	1.187	1.330	1.332
1.059	1.310	0.251	-1.184	0.404	0.780	1.372	1.213	1.191	1.199	1.340	1.336
1.045	1.301	0.256	-1.173	0.394	0.778	1.379	1.218	1.193	1.203	1.345	1.338
1.043	1.294	0.251	-1.168	0.396	0.772	1.373	1.211	1.184	1.195	1.343	1.335
1.061	1.281	0.220	-1.171	0.420	0.750	1.366	1.206	1.177	1.191	1.343	1.340
1.046	1.262	0.216	-1.154	0.415	0.739	1.365	1.203	1.172	1.189	1.352	1.346
1.015	1.251	0.236	-1.133	0.389	0.743	1.365	1.202	1.171	1.190	1.367	1.352
1.027	1.258	0.231	-1.142	0.398	0.744	1.360	1.197	1.167	1.188	1.381	1.348
1.064	1.262	0.198	-1.163	0.433	0.730	1.352	1.189	1.162	1.189	1.400	1.341
1.066	1.258	0.192	-1.162	0.437	0.725	1.354	1.189	1.164	1.193	1.407	1.339
1.080	1.248	0.168	-1.164	0.456	0.708	1.353	1.187	1.162	1.189	1.385	1.337
1.076	1.232	0.156	-1.154	0.460	0.694	1.346	1.179	1.150	1.172	1.336	1.318
1.083	1.239	0.156	-1.161	0.463	0.697	1.336	1.169	1.138	1.156	1.295	1.293
1.074	1.251	0.177	-1.162	0.448	0.714	1.337	1.173	1.136	1.154	1.286	1.270
1.071	1.268	0.197	-1.169	0.437	0.732	1.338	1.172	1.130	1.144	1.265	1.249
1.102	1.312	0.210	-1.207	0.446	0.761	1.328	1.160	1.118	1.125	1.234	1.229
1.138	1.338	0.200	-1.238	0.469	0.769	1.319	1.152	1.113	1.115	1.213	1.233
1.176	1.334	0.158	-1.255	0.509	0.746	1.323	1.158	1.120	1.117	1.204	1.250
1.192	1.300	0.108	-1.246	0.542	0.704	1.324	1.157	1.118	1.114	1.192	1.260
1.159	1.263	0.104	-1.211	0.527	0.683	1.327	1.162	1.126	1.129	1.217	1.286
1.079	1.245	0.166	-1.162	0.456	0.705	1.356	1.193	1.155	1.164	1.265	1.319
0.983	1.233	0.250	-1.108	0.366	0.741	1.379	1.213	1.170	1.180	1.287	1.327
0.966	1.220	0.254	-1.093	0.356	0.737	1.372	1.204	1.157	1.168	1.281	1.312
0.984	1.209	0.225	-1.096	0.379	0.717	1.358	1.190	1.143	1.156	1.278	1.302
0.989	1.213	0.224	-1.101	0.382	0.718	1.359	1.193	1.147	1.160	1.291	1.307
1.010	1.245	0.235	-1.127	0.387	0.740	1.373	1.208	1.164	1.176	1.312	1.322
1.051	1.283	0.232	-1.167	0.409	0.757	1.388	1.223	1.180	1.192	1.324	1.334
1.079	1.300	0.221	-1.189	0.429	0.760	1.395	1.228	1.182	1.195	1.320	1.335
1.066	1.284	0.218	-1.175	0.424	0.751	1.386	1.216	1.168	1.182	1.307	1.325
1.049	1.252	0.203	-1.150	0.423	0.727	1.378	1.208	1.159	1.173	1.300	1.319
1.040	1.246	0.206	-1.143	0.417	0.726	1.372	1.202	1.149	1.165	1.296	1.312
1.048	1.266	0.218	-1.157	0.415	0.742	1.366	1.197	1.143	1.161	1.297	1.308
1.064	1.270	0.206	-1.167	0.429	0.738	1.359	1.190	1.139	1.157	1.299	1.306
1.078	1.261	0.183	-1.169	0.447	0.722	1.359	1.190	1.143	1.162	1.305	1.309
1.098	1.263	0.165	-1.180	0.466	0.714	1.362	1.193	1.148	1.167	1.310	1.310
1.105	1.261	0.156	-1.183	0.474	0.708	1.365	1.195	1.151	1.171	1.313	1.312
1.103	1.254	0.151	-1.178	0.476	0.702	1.367	1.197	1.152	1.172	1.312	1.313
1.098	1.254	0.156	-1.176	0.471	0.705	1.363	1.192	1.145	1.164	1.302	1.307
1.080	1.238	0.158	-1.159	0.461	0.698	1.356	1.183	1.135	1.153	1.292	1.297
1.065	1.230	0.165	-1.147	0.450	0.697	1.348	1.176	1.127	1.142	1.284	1.290
1.066	1.238	0.172	-1.152	0.447	0.705	1.344	1.175	1.127	1.139	1.281	1.290
1.072	1.245	0.173	-1.158	0.449	0.709	1.350	1.180	1.136	1.144	1.285	1.294
1.090	1.259	0.169	-1.174	0.460	0.714	1.357	1.187	1.143	1.150	1.293	1.297
1.099	1.258	0.159	-1.178	0.470	0.708	1.360	1.191	1.149	1.154	1.298	1.297
1.092	1.242	0.150	-1.167	0.471	0.696	1.360	1.189	1.146	1.152	1.292	1.288
1.086	1.228	0.142	-1.157	0.472	0.685	1.352	1.181	1.137	1.144	1.284	1.281
1.081	1.226	0.145	-1.153	0.468	0.685	1.349	1.178	1.133	1.143	1.285	1.284
1.070	1.235	0.165	-1.152	0.452	0.700	1.349	1.180	1.135	1.144	1.289	1.290
1.063	1.240	0.177	-1.151	0.443	0.708	1.350	1.183	1.139	1.146	1.292	1.296
1.061	1.246	0.185	-1.153	0.438	0.715	1.353	1.188	1.145	1.153	1.301	1.303
1.070	1.250	0.180	-1.160	0.445	0.715	1.359	1.194	1.151	1.161	1.310	1.310
1.070	1.244	0.174	-1.157	0.448	0.709	1.359	1.192	1.148	1.159	1.308	1.310
1.058	1.234	0.176	-1.146	0.441	0.705	1.351	1.183	1.138	1.149	1.297	1.298
1.045	1.232	0.187	-1.138	0.429	0.709	1.343	1.172	1.127	1.142	1.284	1.286
1.041	1.223	0.182	-1.132	0.429	0.702	1.338	1.166	1.120	1.136	1.277	1.279
1.029	1.195	0.166	-1.112	0.431	0.680	1.336	1.165	1.118	1.133	1.274	1.277
1.025	1.194	0.169	-1.109	0.428	0.681	1.340	1.171	1.122	1.136	1.278	1.280
1.047	1.226	0.179	-1.136	0.434	0.702	1.348	1.180	1.133	1.144	1.290	1.292
1.065	1.241	0.176	-1.153	0.444	0.708	1.358	1.191	1.146	1.155	1.304	1.302
1.077	1.252	0.175	-1.164	0.451	0.713	1.367	1.198	1.154	1.162	1.312	1.306
1.080	1.248	0.168	-1.164	0.456	0.708	1.372	1.203	1.158	1.166	1.313	1.306
1.065	1.226	0.161	-1.145	0.452	0.693	1.370	1.199	1.152	1.160	1.299	1.296
1.054	1.210	0.156	-1.132	0.449	0.683	1.362	1.189	1.143	1.149	1.284	1.288
1.056	1.201	0.145	-1.128	0.455	0.673	1.355	1.183	1.134	1.136	1.278	1.283
1.066	1.195	0.129	-1.130	0.468	0.662	1.341	1.174	1.123	1.122	1.275	1.277
1.091	1.218	0.127	-1.154	0.482	0.672	1.329	1.164	1.112	1.112	1.281	1.273
1.127	1.240	0.113	-1.183	0.507	0.676	1.323	1.157	1.109	1.101	1.300	1.276
1.132	1.236	0.104	-1.184	0.514	0.670	1.327	1.163	1.117	1.096	1.341	1.290
1.093	1.220	0.127	-1.156	0.483	0.673	1.335	1.173	1.124	1.097	1.377	1.301
1.077	1.203	0.126	-1.140	0.475	0.664	1.337	1.170	1.120	1.090	1.385	1.305
1.088	1.177	0.089	-1.132	0.499	0.633	1.334	1.163	1.111	1.095	1.356	1.307
1.097	1.179	0.082	-1.138	0.507	0.630	1.334	1.162	1.110	1.105	1.317	1.325
1.093	1.211	0.118	-1.152	0.487	0.664	1.347	1.174	1.125	1.124	1.277	1.349
1.074	1.239	0.165	-1.156	0.454	0.702	1.364	1.191	1.143	1.139	1.235	1.355
1.049	1.239	0.190	-1.144	0.429	0.714	1.374	1.202	1.159	1.153	1.216	1.354
1.039	1.246	0.207	-1.142	0.416	0.726	1.387	1.215	1.176	1.170	1.222	1.339
1.020	1.231	0.211	-1.125	0.404	0.721	1.390	1.218	1.182	1.178	1.238	1.312
1.002	1.215	0.213	-1.108	0.394	0.714	1.396	1.221	1.184	1.182	1.255	1.292
0.998	1.212	0.214	-1.105	0.392	0.713	1.393	1.213	1.177	1.180	1.263	1.282
0.997	1.226	0.229	-1.111	0.384	0.727	1.389	1.206	1.171	1.178	1.270	1.279
1.006	1.251	0.245	-1.128	0.380	0.748	1.388	1.202	1.168	1.171	1.272	1.278
1.014	1.263	0.249	-1.138	0.382	0.756	1.384	1.197	1.163	1.164	1.274	1.272
1.029	1.282	0.253	-1.155	0.388	0.767	1.383	1.200	1.171	1.169	1.286	1.272
1.032	1.282	0.250	-1.157	0.391	0.766	1.388	1.204	1.180	1.175	1.296	1.272
1.026	1.271	0.245	-1.148	0.390	0.758	1.394	1.208	1.185	1.181	1.300	1.270
1.020	1.273	0.253	-1.146	0.383	0.763	1.402	1.213	1.188	1.186	1.304	1.274
1.009	1.267	0.258	-1.138	0.375	0.762	1.403	1.211	1.185	1.181	1.296	1.267
0.998	1.255	0.257	-1.126	0.370	0.756	1.389	1.196	1.170	1.169	1.282	1.258
0.991	1.255	0.264	-1.123	0.363	0.759	1.379	1.188	1.163	1.167	1.284	1.264
0.999	1.264	0.265	-1.131	0.367	0.764	1.374	1.184	1.162	1.170	1.293	1.274
1.024	1.261	0.237	-1.142	0.393	0.749	1.365	1.178	1.162	1.172	1.303	1.284
1.019	1.249	0.230	-1.134	0.394	0.739	1.357	1.173	1.168	1.178	1.317	1.296
1.021	1.258	0.237	-1.139	0.392	0.747	1.359	1.177	1.179	1.189	1.331	1.309
1.034	1.270	0.236	-1.152	0.399	0.753	1.366	1.181	1.186	1.194	1.335	1.315
1.041	1.279	0.238	-1.160	0.401	0.758	1.364	1.176	1.179	1.188	1.322	1.308
1.035	1.287	0.252	-1.161	0.391	0.769	1.348	1.160	1.162	1.174	1.306	1.299
1.032	1.298	0.266	-1.165	0.383	0.782	1.329	1.146	1.148	1.164	1.296	1.291
1.008	1.300	0.292	-1.154	0.358	0.796	1.316	1.140	1.137	1.157	1.289	1.281
0.994	1.299	0.305	-1.146	0.344	0.802	1.303	1.131	1.126	1.148	1.285	1.271
1.000	1.286	0.286	-1.143	0.357	0.786	1.305	1.135	1.130	1.150	1.292	1.276
0.982	1.256	0.274	-1.119	0.354	0.765	1.313	1.143	1.136	1.151	1.293	1.276
0.971	1.232	0.261	-1.101	0.355	0.746	1.319	1.152	1.145	1.158	1.293	1.282
0.956	1.197	0.241	-1.076	0.357	0.719	1.330	1.164	1.154	1.169	1.298	1.289
0.952	1.179	0.227	-1.065	0.362	0.703	1.333	1.167	1.153	1.174	1.301	1.294
0.959	1.192	0.233	-1.075	0.363	0.712	1.337	1.173	1.157	1.183	1.310	1.304
0.989	1.239	0.250	-1.114	0.369	0.744	1.342	1.179	1.162	1.190	1.318	1.313
1.048	1.299	0.251	-1.173	0.398	0.775	1.347	1.184	1.164	1.191	1.320	1.312
1.031	1.279	0.248	-1.155	0.391	0.763	1.331	1.167	1.145	1.173	1.306	1.298
1.000	1.250	0.250	-1.125	0.375	0.750	1.323	1.160	1.139	1.166	1.304	1.295
0.989	1.226	0.237	-1.107	0.376	0.731	1.315	1.148	1.125	1.148	1.290	1.282
0.974	1.192	0.218	-1.083	0.378	0.705	1.306	1.138	1.115	1.134	1.283	1.276
0.999	1.203	0.204	-1.101	0.397	0.703	1.301	1.131	1.105	1.121	1.285	1.272
1.012	1.211	0.199	-1.111	0.406	0.705	1.302	1.133	1.105	1.119	1.293	1.275
1.014	1.206	0.192	-1.110	0.411	0.699	1.308	1.138	1.104	1.119	1.286	1.269
1.004	1.192	0.188	-1.098	0.408	0.690	1.310	1.140	1.100	1.123	1.275	1.261
0.994	1.187	0.193	-1.090	0.400	0.690	1.316	1.146	1.106	1.129	1.271	1.266
1.011	1.219	0.208	-1.115	0.401	0.713	1.333	1.166	1.127	1.146	1.276	1.276
1.014	1.224	0.210	-1.119	0.402	0.717	1.340	1.175	1.135	1.149	1.270	1.272
0.975	1.172	0.197	-1.073	0.389	0.684	1.340	1.174	1.133	1.142	1.256	1.262
0.933	1.128	0.195	-1.030	0.369	0.661	1.338	1.168	1.121	1.126	1.237	1.244
0.926	1.126	0.200	-1.026	0.363	0.663	1.327	1.153	1.100	1.107	1.221	1.226
0.941	1.113	0.172	-1.027	0.384	0.642	1.320	1.147	1.088	1.098	1.219	1.221
0.957	1.125	0.168	-1.041	0.394	0.646	1.314	1.142	1.078	1.096	1.222	1.221
0.971	1.138	0.167	-1.054	0.402	0.652	1.307	1.138	1.071	1.096	1.225	1.221
0.972	1.147	0.175	-1.059	0.398	0.661	1.299	1.133	1.068	1.098	1.233	1.228
0.994	1.179	0.185	-1.086	0.404	0.682	1.319	1.155	1.094	1.124	1.262	1.253
1.017	1.195	0.178	-1.106	0.419	0.686	1.335	1.169	1.106	1.133	1.268	1.255
1.002	1.165	0.163	-1.083	0.419	0.664	1.335	1.167	1.107	1.133	1.268	1.255
0.984	1.144	0.160	-1.064	0.412	0.652	1.332	1.162	1.102	1.123	1.263	1.252
0.948	1.123	0.175	-1.035	0.386	0.649	1.323	1.153	1.090	1.105	1.246	1.241
0.923	1.102	0.179	-1.012	0.372	0.640	1.307	1.137	1.070	1.087	1.224	1.225
0.884	1.067	0.183	-0.975	0.350	0.625	1.291	1.124	1.055	1.072	1.215	1.219
0.880	1.076	0.196	-0.978	0.342	0.636	1.285	1.119	1.051	1.064	1.215	1.210
0.888	1.076	0.188	-0.982	0.350	0.632	1.285	1.120	1.056	1.075	1.233	1.214
0.926	1.105	0.179	-1.015	0.373	0.642	1.316	1.152	1.093	1.117	1.279	1.243
1.001	1.157	0.156	-1.079	0.422	0.656	1.339	1.173	1.109	1.129	1.274	1.243
1.001	1.144	0.143	-1.072	0.429	0.643	1.329	1.162	1.098	1.111	1.240	1.236
0.949	1.088	0.139	-1.018	0.405	0.613	1.315	1.147	1.080	1.090	1.220	1.225
0.968	1.085	0.117	-1.026	0.425	0.601	1.298	1.133	1.065	1.074	1.217	1.221
0.972	1.099	0.127	-1.035	0.422	0.613	1.296	1.133	1.063	1.071	1.224	1.223
0.963	1.130	0.167	-1.046	0.398	0.648	1.289	1.127	1.059	1.073	1.230	1.228
0.986	1.174	0.188	-1.080	0.399	0.681	1.300	1.142	1.078	1.097	1.242	1.246
0.997	1.194	0.197	-1.095	0.400	0.695	1.313	1.149	1.082	1.104	1.234	1.246
0.974	1.169	0.195	-1.071	0.389	0.682	1.316	1.148	1.081	1.100	1.230	1.246
0.977	1.171	0.194	-1.074	0.391	0.682	1.317	1.149	1.081	1.105	1.228	1.244
0.991	1.180	0.189	-1.085	0.401	0.684	1.320	1.153	1.090	1.118	1.227	1.244
1.013	1.186	0.173	-1.099	0.420	0.679	1.329	1.162	1.099	1.119	1.230	1.242
0.995	1.150	0.155	-1.072	0.420	0.652	1.324	1.156	1.093	1.109	1.229	1.233
0.973	1.110	0.137	-1.041	0.418	0.623	1.315	1.147	1.088	1.110	1.238	1.236
0.969	1.126	0.157	-1.047	0.406	0.641	1.316	1.150	1.090	1.118	1.253	1.248
0.976	1.161	0.185	-1.068	0.395	0.673	1.319	1.154	1.095	1.125	1.265	1.262
0.988	1.170	0.182	-1.079	0.403	0.676	1.324	1.161	1.104	1.135	1.275	1.271
0.993	1.182	0.189	-1.087	0.402	0.685	1.326	1.163	1.107	1.139	1.279	1.270
0.998	1.184	0.186	-1.091	0.406	0.685	1.328	1.166	1.105	1.136	1.278	1.263
1.010	1.179	0.169	-1.094	0.420	0.674	1.335	1.175	1.106	1.133	1.274	1.255
1.027	1.194	0.167	-1.110	0.430	0.680	1.357	1.204	1.128	1.143	1.280	1.256
1.041	1.209	0.168	-1.125	0.436	0.688	1.393	1.251	1.164	1.143	1.271	1.241
1.021	1.195	0.174	-1.108	0.423	0.684	1.429	1.305	1.206	1.149	1.265	1.231
1.059	1.243	0.184	-1.151	0.437	0.713	1.489	1.377	1.262	1.168	1.253	1.214
1.008	1.186	0.178	-1.097	0.415	0.682	1.522	1.427	1.299	1.152	1.212	1.176
0.919	1.123	0.204	-1.021	0.357	0.663	1.556	1.502	1.373	1.162	1.192	1.158
0.891	1.111	0.220	-1.001	0.335	0.665	1.597	1.586	1.460	1.194	1.192	1.163
0.912	1.171	0.259	-1.041	0.326	0.715	1.626	1.655	1.540	1.231	1.201	1.172
0.952	1.227	0.275	-1.089	0.338	0.751	1.620	1.704	1.597	1.267	1.228	1.190
0.988	1.228	0.240	-1.108	0.374	0.734	1.580	1.716	1.618	1.321	1.289	1.236
1.019	1.239	0.220	-1.129	0.399	0.729	1.510	1.674	1.602	1.406	1.386	1.315
1.105	1.326	0.221	-1.215	0.442	0.773	1.412	1.563	1.539	1.527	1.515	1.424
1.175	1.415	0.240	-1.295	0.467	0.827	1.251	1.357	1.396	1.664	1.669	1.557
1.207	1.497	0.290	-1.352	0.458	0.893	1.040	1.076	1.199	1.803	1.829	1.694
1.232	1.617	0.385	-1.424	0.423	1.001	0.819	0.771	0.980	1.942	1.997	1.838
1.304	1.788	0.484	-1.546	0.410	1.136	0.641	0.513	0.775	2.048	2.137	1.953
1.338	1.885	0.547	-1.611	0.395	1.216	0.484	0.291	0.564	2.077	2.215	2.017
1.337	1.916	0.579	-1.626	0.379	1.247	0.376	0.142	0.395	2.073	2.256	2.048
1.311	1.922	0.611	-1.616	0.350	1.266	0.338	0.052	0.263	2.043	2.246	2.029
1.230	1.895	0.665	-1.562	0.282	1.280	0.395	0.018	0.167	1.966	2.168	1.956
1.092	1.758	0.666	-1.425	0.213	1.212	0.520	0.027	0.089	1.813	2.021	1.834
0.975	1.637	0.662	-1.306	0.156	1.149	0.694	0.102	0.054	1.627	1.851	1.700
0.928	1.594	0.666	-1.261	0.131	1.130	0.864	0.211	0.044	1.445	1.699	1.584
0.883	1.579	0.696	-1.231	0.093	1.137	0.993	0.317	0.051	1.266	1.554	1.475
0.840	1.559	0.719	-1.199	0.060	1.139	1.118	0.426	0.074	1.062	1.399	1.368
0.794	1.523	0.729	-1.158	0.032	1.126	1.230	0.521	0.099	0.862	1.260	1.279
0.788	1.481	0.693	-1.134	0.047	1.087	1.339	0.614	0.152	0.732	1.174	1.216
0.789	1.420	0.631	-1.104	0.079	1.025	1.452	0.702	0.241	0.713	1.145	1.186
0.787	1.372	0.585	-1.079	0.101	0.978	1.574	0.786	0.352	0.762	1.150	1.177
0.774	1.315	0.541	-1.044	0.116	0.928	1.693	0.873	0.468	0.825	1.158	1.171
0.773	1.245	0.472	-1.009	0.150	0.858	1.765	0.940	0.550	0.855	1.146	1.157
0.763	1.165	0.402	-0.964	0.180	0.783	1.804	0.983	0.602	0.861	1.124	1.139
0.767	1.103	0.336	-0.935	0.215	0.719	1.799	0.991	0.628	0.853	1.102	1.126
0.782	1.073	0.291	-0.927	0.245	0.682	1.777	0.986	0.644	0.846	1.091	1.118
0.793	1.035	0.242	-0.914	0.275	0.638	1.783	0.981	0.651	0.834	1.077	1.106
0.792	1.001	0.209	-0.896	0.291	0.605	1.798	0.993	0.675	0.841	1.081	1.106
0.788	0.979	0.191	-0.883	0.298	0.585	1.804	1.024	0.713	0.856	1.086	1.105
0.798	0.970	0.172	-0.884	0.313	0.571	1.778	1.045	0.744	0.867	1.086	1.103
0.805	0.964	0.159	-0.884	0.323	0.561	1.758	1.075	0.781	0.887	1.096	1.114
0.777	0.944	0.167	-0.860	0.305	0.555	1.751	1.107	0.819	0.908	1.106	1.123
0.757	0.932	0.175	-0.844	0.291	0.553	1.742	1.131	0.851	0.922	1.109	1.123
0.815	0.966	0.151	-0.890	0.332	0.558	1.729	1.150	0.876	0.933	1.111	1.123
0.824	0.988	0.164	-0.906	0.330	0.576	1.711	1.172	0.907	0.952	1.121	1.130
0.816	1.009	0.193	-0.912	0.311	0.601	1.689	1.200	0.948	0.978	1.139	1.142
0.840	1.041	0.201	-0.940	0.319	0.621	1.644	1.216	0.991	1.010	1.163	1.161
0.878	1.086	0.208	-0.982	0.335	0.647	1.599	1.230	1.040	1.050	1.196	1.186
0.907	1.113	0.206	-1.010	0.350	0.659	1.547	1.233	1.078	1.081	1.220	1.205
0.918	1.128	0.210	-1.023	0.354	0.669	1.490	1.225	1.104	1.104	1.234	1.217
0.939	1.151	0.212	-1.045	0.363	0.681	1.432	1.206	1.119	1.118	1.241	1.221
0.945	1.144	0.199	-1.044	0.373	0.671	1.375	1.174	1.110	1.112	1.233	1.213
0.928	1.140	0.212	-1.034	0.358	0.676	1.350	1.164	1.114	1.116	1.237	1.216
0.938	1.156	0.218	-1.047	0.360	0.687	1.341	1.164	1.118	1.118	1.238	1.214
0.929	1.148	0.219	-1.038	0.355	0.683	1.334	1.166	1.125	1.122	1.245	1.218
0.914	1.147	0.233	-1.030	0.340	0.690	1.336	1.175	1.142	1.134	1.256	1.227
0.948	1.164	0.216	-1.056	0.366	0.690	1.339	1.185	1.159	1.149	1.269	1.240
0.988	1.184	0.196	-1.086	0.396	0.690	1.340	1.187	1.164	1.153	1.266	1.238
1.008	1.183	0.175	-1.095	0.416	0.679	1.325	1.178	1.159	1.149	1.258	1.232
0.994	1.177	0.183	-1.085	0.405	0.680	1.320	1.178	1.162	1.151	1.256	1.232
0.964	1.180	0.216	-1.072	0.374	0.698	1.312	1.172	1.156	1.143	1.242	1.218
0.990	1.198	0.208	-1.094	0.391	0.703	1.291	1.158	1.148	1.138	1.237	1.215
0.966	1.197	0.231	-1.081	0.367	0.714	1.295	1.171	1.164	1.151	1.250	1.227
0.927	1.165	0.238	-1.046	0.344	0.701	1.295	1.176	1.173	1.157	1.256	1.232
0.950	1.150	0.200	-1.050	0.375	0.675	1.296	1.181	1.184	1.163	1.261	1.238
0.978	1.157	0.179	-1.067	0.399	0.668	1.293	1.180	1.187	1.166	1.260	1.238
0.996	1.163	0.167	-1.079	0.414	0.665	1.289	1.179	1.188	1.168	1.259	1.240
0.986	1.157	0.171	-1.071	0.407	0.664	1.287	1.178	1.190	1.172	1.259	1.244
0.945	1.145	0.200	-1.045	0.372	0.672	1.279	1.171	1.181	1.162	1.244	1.231
0.925	1.136	0.211	-1.030	0.357	0.673	1.262	1.159	1.171	1.155	1.240	1.229
0.982	1.196	0.214	-1.089	0.384	0.705	1.272	1.176	1.189	1.172	1.258	1.245
1.006	1.227	0.221	-1.116	0.392	0.724	1.282	1.187	1.202	1.180	1.266	1.249
0.964	1.193	0.229	-1.078	0.367	0.711	1.278	1.186	1.206	1.181	1.267	1.249
0.959	1.186	0.227	-1.072	0.366	0.706	1.283	1.194	1.217	1.192	1.279	1.261
0.972	1.198	0.226	-1.085	0.373	0.712	1.296	1.206	1.231	1.203	1.287	1.268
0.977	1.198	0.221	-1.087	0.378	0.709	1.296	1.204	1.229	1.199	1.281	1.262
0.974	1.181	0.207	-1.077	0.383	0.694	1.283	1.191	1.215	1.184	1.265	1.248
0.968	1.169	0.201	-1.068	0.383	0.685	1.271	1.182	1.208	1.176	1.261	1.246
1.008	1.198	0.190	-1.103	0.409	0.694	1.273	1.186	1.213	1.179	1.265	1.249
1.030	1.219	0.189	-1.124	0.420	0.704	1.276	1.190	1.219	1.182	1.269	1.252
1.017	1.214	0.197	-1.115	0.410	0.705	1.276	1.192	1.227	1.187	1.276	1.257
1.004	1.214	0.210	-1.109	0.397	0.712	1.281	1.198	1.235	1.194	1.279	1.257
0.989	1.184	0.195	-1.086	0.397	0.689	1.275	1.192	1.232	1.189	1.272	1.250
0.958	1.159	0.201	-1.058	0.378	0.680	1.274	1.192	1.235	1.191	1.271	1.251
0.981	1.179	0.198	-1.080	0.391	0.688	1.281	1.197	1.242	1.196	1.276	1.255
0.979	1.196	0.217	-1.087	0.381	0.706	1.291	1.206	1.253	1.205	1.283	1.260
0.957	1.188	0.231	-1.072	0.363	0.709	1.285	1.200	1.247	1.197	1.277	1.254
0.972	1.203	0.231	-1.087	0.370	0.717	1.287	1.207	1.259	1.206	1.290	1.264
0.965	1.204	0.239	-1.084	0.363	0.721	1.291	1.213	1.265	1.209	1.293	1.265
0.968	1.192	0.224	-1.080	0.372	0.708	1.286	1.208	1.267	1.207	1.293	1.264
0.980	1.189	0.209	-1.084	0.385	0.699	1.287	1.211	1.275	1.214	1.298	1.267
0.991	1.189	0.198	-1.090	0.396	0.693	1.288	1.214	1.280	1.218	1.299	1.269
0.964	1.175	0.211	-1.069	0.376	0.693	1.290	1.215	1.281	1.218	1.297	1.266
0.961	1.175	0.214	-1.068	0.373	0.694	1.286	1.211	1.279	1.215	1.293	1.266
0.986	1.198	0.212	-1.092	0.387	0.705	1.291	1.220	1.290	1.226	1.304	1.276
0.976	1.214	0.238	-1.095	0.369	0.726	1.300	1.230	1.301	1.235	1.314	1.283
0.959	1.220	0.261	-1.089	0.349	0.740	1.305	1.238	1.313	1.245	1.324	1.289
0.973	1.231	0.258	-1.102	0.357	0.744	1.306	1.241	1.323	1.249	1.326	1.290
0.990	1.236	0.246	-1.113	0.372	0.741	1.307	1.244	1.332	1.257	1.333	1.297
0.983	1.229	0.246	-1.106	0.368	0.737	1.312	1.250	1.341	1.264	1.336	1.300
0.958	1.205	0.247	-1.081	0.355	0.726	1.308	1.245	1.339	1.260	1.328	1.293
0.958	1.198	0.240	-1.078	0.359	0.719	1.301	1.241	1.338	1.257	1.322	1.289
0.956	1.202	0.246	-1.079	0.355	0.724	1.298	1.241	1.340	1.256	1.319	1.288
0.954	1.206	0.252	-1.080	0.351	0.729	1.295	1.241	1.342	1.256	1.318	1.285
0.965	1.211	0.246	-1.088	0.359	0.728	1.290	1.244	1.349	1.261	1.326	1.290
0.994	1.227	0.233	-1.110	0.380	0.730	1.292	1.250	1.361	1.268	1.334	1.296
1.013	1.236	0.223	-1.124	0.395	0.729	1.299	1.260	1.377	1.280	1.346	1.306
1.011	1.236	0.225	-1.123	0.393	0.730	1.308	1.271	1.392	1.293	1.355	1.312
0.983	1.219	0.236	-1.101	0.373	0.727	1.311	1.274	1.398	1.299	1.355	1.313
0.981	1.214	0.233	-1.097	0.374	0.723	1.306	1.272	1.399	1.301	1.353	1.311
0.999	1.226	0.227	-1.112	0.386	0.726	1.301	1.270	1.399	1.299	1.347	1.305
1.002	1.221	0.219	-1.111	0.391	0.720	1.288	1.261	1.391	1.288	1.336	1.294
0.988	1.209	0.221	-1.098	0.383	0.715	1.279	1.260	1.396	1.291	1.342	1.298
0.994	1.221	0.227	-1.107	0.383	0.724	1.282	1.267	1.409	1.301	1.352	1.304
1.003	1.232	0.229	-1.117	0.387	0.730	1.287	1.277	1.424	1.315	1.365	1.316
1.025	1.255	0.230	-1.140	0.397	0.742	1.301	1.295	1.447	1.335	1.382	1.330
1.033	1.261	0.228	-1.147	0.402	0.744	1.307	1.303	1.455	1.341	1.380	1.327
0.997	1.229	0.232	-1.113	0.382	0.730	1.303	1.299	1.452	1.338	1.372	1.319
0.982	1.220	0.238	-1.101	0.372	0.729	1.293	1.291	1.445	1.331	1.362	1.310
1.013	1.238	0.225	-1.125	0.394	0.731	1.284	1.287	1.444	1.330	1.363	1.311
1.051	1.257	0.206	-1.154	0.422	0.731	1.279	1.287	1.446	1.333	1.367	1.315
1.065	1.273	0.208	-1.169	0.428	0.740	1.279	1.295	1.456	1.344	1.381	1.325
1.054	1.275	0.221	-1.164	0.416	0.748	1.287	1.307	1.471	1.358	1.396	1.339
1.027	1.268	0.241	-1.147	0.393	0.754	1.300	1.323	1.491	1.377	1.414	1.357
0.998	1.263	0.265	-1.130	0.366	0.764	1.314	1.338	1.505	1.391	1.425	1.369
0.986	1.258	0.272	-1.122	0.357	0.765	1.318	1.340	1.507	1.392	1.421	1.366
1.001	1.257	0.256	-1.129	0.372	0.756	1.309	1.332	1.498	1.384	1.409	1.358
1.022	1.266	0.244	-1.144	0.389	0.755	1.303	1.327	1.491	1.378	1.403	1.352
1.025	1.268	0.243	-1.146	0.391	0.755	1.298	1.325	1.487	1.374	1.403	1.351
1.018	1.272	0.254	-1.145	0.382	0.763	1.297	1.329	1.491	1.379	1.409	1.355
1.003	1.281	0.278	-1.142	0.362	0.779	1.302	1.335	1.499	1.387	1.418	1.363
1.005	1.290	0.285	-1.147	0.360	0.787	1.307	1.339	1.502	1.393	1.422	1.366
1.018	1.290	0.272	-1.154	0.373	0.781	1.308	1.340	1.501	1.393	1.421	1.366
1.019	1.279	0.260	-1.149	0.379	0.769	1.309	1.339	1.497	1.390	1.418	1.364
1.010	1.272	0.262	-1.141	0.374	0.767	1.307	1.333	1.486	1.382	1.410	1.357
1.003	1.269	0.266	-1.136	0.368	0.767	1.299	1.323	1.473	1.370	1.399	1.350
1.004	1.268	0.264	-1.136	0.370	0.766	1.293	1.315	1.462	1.361	1.392	1.346
1.004	1.268	0.264	-1.136	0.370	0.766	1.291	1.313	1.457	1.356	1.394	1.348
1.000	1.272	0.272	-1.136	0.364	0.772	1.295	1.315	1.457	1.358	1.401	1.354
0.998	1.276	0.278	-1.137	0.360	0.777	1.299	1.316	1.456	1.360	1.406	1.361
0.995	1.275	0.280	-1.135	0.357	0.777	1.303	1.316	1.453	1.359	1.407	1.362
0.997	1.267	0.270	-1.132	0.363	0.768	1.303	1.309	1.443	1.352	1.399	1.357
0.998	1.258	0.260	-1.128	0.369	0.759	1.298	1.298	1.426	1.341	1.389	1.349
0.989	1.250	0.261	-1.119	0.364	0.755	1.294	1.289	1.409	1.330	1.379	1.342
0.980	1.247	0.267	-1.113	0.356	0.757	1.289	1.278	1.391	1.316	1.371	1.335
0.977	1.248	0.271	-1.112	0.353	0.759	1.285	1.269	1.377	1.306	1.366	1.330
0.976	1.256	0.280	-1.116	0.348	0.768	1.285	1.266	1.370	1.303	1.367	1.329
0.967	1.253	0.286	-1.110	0.340	0.769	1.291	1.266	1.365	1.302	1.370	1.333
0.968	1.252	0.284	-1.110	0.342	0.768	1.297	1.265	1.359	1.301	1.370	1.333
0.967	1.245	0.278	-1.106	0.344	0.761	1.300	1.260	1.349	1.295	1.365	1.329
0.962	1.234	0.272	-1.098	0.345	0.753	1.302	1.251	1.333	1.283	1.351	1.319
0.950	1.219	0.269	-1.084	0.340	0.744	1.298	1.238	1.312	1.264	1.334	1.305
0.941	1.211	0.270	-1.076	0.335	0.740	1.295	1.227	1.294	1.249	1.321	1.295
0.943	1.215	0.272	-1.079	0.335	0.743	1.293	1.218	1.279	1.238	1.313	1.289
0.941	1.215	0.274	-1.078	0.333	0.744	1.293	1.210	1.267	1.228	1.310	1.286
0.936	1.213	0.277	-1.074	0.329	0.745	1.294	1.205	1.260	1.222	1.312	1.287
0.936	1.213	0.277	-1.074	0.329	0.745	1.302	1.205	1.258	1.221	1.315	1.290
0.936	1.209	0.273	-1.072	0.331	0.741	1.310	1.205	1.252	1.217	1.313	1.289
0.933	1.198	0.265	-1.065	0.334	0.731	1.313	1.199	1.240	1.206	1.303	1.282
0.928	1.185	0.257	-1.056	0.335	0.721	1.312	1.188	1.226	1.190	1.288	1.271
0.921	1.174	0.253	-1.047	0.334	0.713	1.307	1.175	1.206	1.173	1.273	1.258
0.914	1.166	0.252	-1.040	0.331	0.709	1.301	1.163	1.188	1.158	1.262	1.250
0.909	1.163	0.254	-1.036	0.327	0.708	1.298	1.156	1.175	1.149	1.260	1.246
0.906	1.165	0.259	-1.035	0.323	0.712	1.302	1.155	1.172	1.148	1.264	1.249
0.907	1.164	0.257	-1.035	0.325	0.710	1.309	1.157	1.170	1.147	1.267	1.251
0.904	1.158	0.254	-1.031	0.325	0.706	1.315	1.158	1.166	1.146	1.267	1.252
0.902	1.147	0.245	-1.024	0.328	0.696	1.320	1.156	1.159	1.140	1.261	1.248
0.898	1.136	0.238	-1.017	0.330	0.687	1.321	1.149	1.147	1.130	1.251	1.241
0.894	1.128	0.234	-1.011	0.330	0.681	1.318	1.140	1.134	1.118	1.241	1.233
0.892	1.123	0.231	-1.007	0.330	0.677	1.314	1.132	1.121	1.109	1.233	1.225
0.891	1.124	0.233	-1.007	0.329	0.678	1.310	1.127	1.112	1.103	1.231	1.224
0.890	1.128	0.238	-1.009	0.326	0.683	1.311	1.129	1.113	1.103	1.236	1.227
0.886	1.126	0.240	-1.006	0.323	0.683	1.315	1.132	1.116	1.104	1.241	1.231
0.893	1.128	0.235	-1.010	0.329	0.681	1.321	1.137	1.119	1.108	1.244	1.236
0.898	1.125	0.227	-1.011	0.335	0.676	1.327	1.140	1.119	1.108	1.243	1.236
0.892	1.114	0.222	-1.003	0.335	0.668	1.327	1.137	1.113	1.102	1.235	1.230
0.879	1.099	0.220	-0.989	0.329	0.659	1.321	1.128	1.098	1.089	1.221	1.218
0.864	1.082	0.218	-0.973	0.323	0.650	1.311	1.115	1.082	1.075	1.209	1.208
0.861	1.080	0.219	-0.970	0.321	0.649	1.308	1.110	1.075	1.070	1.207	1.205
0.865	1.088	0.223	-0.976	0.321	0.655	1.309	1.111	1.076	1.072	1.212	1.209
0.854	1.092	0.238	-0.973	0.308	0.665	1.314	1.115	1.081	1.075	1.218	1.214
0.855	1.090	0.235	-0.972	0.310	0.662	1.317	1.117	1.084	1.077	1.221	1.218
0.863	1.089	0.226	-0.976	0.318	0.657	1.322	1.121	1.087	1.081	1.222	1.222
0.866	1.086	0.220	-0.976	0.323	0.653	1.327	1.122	1.089	1.081	1.220	1.222
0.861	1.079	0.218	-0.970	0.321	0.648	1.328	1.120	1.083	1.076	1.213	1.217
0.849	1.071	0.222	-0.960	0.313	0.646	1.324	1.114	1.075	1.069	1.205	1.210
0.851	1.074	0.223	-0.962	0.314	0.648	1.319	1.108	1.067	1.060	1.198	1.203
0.859	1.075	0.216	-0.967	0.321	0.645	1.314	1.103	1.062	1.054	1.196	1.202
0.853	1.075	0.222	-0.964	0.315	0.648	1.317	1.108	1.071	1.062	1.206	1.211
0.866	1.092	0.226	-0.979	0.320	0.659	1.328	1.118	1.084	1.073	1.216	1.219
0.884	1.104	0.220	-0.994	0.332	0.662	1.338	1.126	1.095	1.082	1.224	1.227
0.899	1.113	0.214	-1.006	0.342	0.663	1.347	1.132	1.100	1.086	1.223	1.227
0.882	1.095	0.213	-0.988	0.334	0.654	1.343	1.126	1.093	1.078	1.213	1.219
0.865	1.076	0.211	-0.970	0.327	0.643	1.334	1.116	1.081	1.066	1.200	1.208
0.863	1.072	0.209	-0.967	0.327	0.640	1.328	1.109	1.074	1.059	1.193	1.202
0.860	1.073	0.213	-0.966	0.323	0.643	1.323	1.106	1.071	1.057	1.192	1.201
0.852	1.071	0.219	-0.961	0.316	0.645	1.322	1.107	1.074	1.061	1.198	1.206
0.848	1.070	0.222	-0.959	0.313	0.646	1.325	1.114	1.084	1.070	1.207	1.214
0.853	1.072	0.219	-0.962	0.317	0.645	1.328	1.122	1.093	1.077	1.213	1.219
0.858	1.071	0.213	-0.964	0.322	0.642	1.331	1.125	1.098	1.081	1.213	1.220
0.856	1.063	0.207	-0.959	0.324	0.635	1.330	1.124	1.096	1.080	1.207	1.216
0.852	1.055	0.203	-0.953	0.324	0.629	1.325	1.119	1.090	1.074	1.199	1.209
0.847	1.049	0.202	-0.948	0.322	0.625	1.318	1.111	1.082	1.065	1.190	1.201
0.846	1.049	0.203	-0.947	0.321	0.626	1.312	1.107	1.079	1.061	1.187	1.199
0.849	1.056	0.207	-0.952	0.321	0.631	1.311	1.108	1.082	1.064	1.193	1.202
0.854	1.066	0.212	-0.960	0.321	0.639	1.315	1.115	1.092	1.072	1.203	1.210
0.858	1.070	0.212	-0.964	0.323	0.641	1.322	1.123	1.103	1.081	1.212	1.217
0.852	1.061	0.209	-0.956	0.321	0.635	1.324	1.125	1.108	1.085	1.212	1.217
0.846	1.051	0.205	-0.948	0.320	0.628	1.323	1.125	1.109	1.086	1.208	1.214
0.844	1.048	0.204	-0.946	0.320	0.626	1.320	1.121	1.104	1.082	1.201	1.209
0.845	1.052	0.207	-0.948	0.319	0.629	1.317	1.117	1.099	1.080	1.197	1.206
0.852	1.060	0.208	-0.956	0.322	0.634	1.313	1.115	1.096	1.076	1.194	1.203
0.853	1.064	0.211	-0.958	0.321	0.637	1.309	1.113	1.095	1.074	1.195	1.204
0.851	1.070	0.219	-0.960	0.316	0.644	1.310	1.118	1.101	1.081	1.203	1.210
0.844	1.064	0.220	-0.954	0.312	0.642	1.312	1.121	1.108	1.086	1.207	1.213
0.842	1.061	0.219	-0.951	0.311	0.640	1.316	1.127	1.116	1.096	1.213	1.220
0.855	1.069	0.214	-0.962	0.320	0.641	1.323	1.135	1.123	1.104	1.217	1.225
0.870	1.078	0.208	-0.974	0.331	0.643	1.327	1.137	1.123	1.104	1.214	1.225
0.875	1.082	0.207	-0.978	0.334	0.644	1.326	1.133	1.118	1.100	1.209	1.222
0.878	1.087	0.209	-0.982	0.334	0.648	1.323	1.130	1.115	1.098	1.206	1.218
0.879	1.091	0.212	-0.985	0.333	0.651	1.320	1.128	1.113	1.096	1.205	1.216
0.875	1.090	0.215	-0.982	0.330	0.652	1.317	1.128	1.114	1.099	1.208	1.218
0.873	1.091	0.218	-0.982	0.327	0.654	1.319	1.131	1.120	1.105	1.216	1.225
0.874	1.093	0.219	-0.983	0.327	0.656	1.324	1.138	1.127	1.112	1.223	1.231
0.871	1.084	0.213	-0.977	0.329	0.648	1.326	1.139	1.129	1.114	1.223	1.230
0.867	1.075	0.208	-0.971	0.329	0.641	1.324	1.136	1.125	1.110	1.217	1.225
0.862	1.067	0.205	-0.964	0.328	0.636	1.319	1.130	1.117	1.102	1.207	1.218
0.857	1.063	0.206	-0.960	0.325	0.634	1.314	1.124	1.109	1.095	1.199	1.211
0.855	1.066	0.211	-0.960	0.322	0.638	1.309	1.122	1.105	1.093	1.197	1.208
0.860	1.073	0.213	-0.966	0.323	0.643	1.306	1.122	1.104	1.093	1.201	1.210
0.863	1.078	0.215	-0.970	0.324	0.646	1.310	1.126	1.112	1.099	1.211	1.216
0.867	1.081	0.214	-0.974	0.326	0.647	1.314	1.131	1.119	1.106	1.217	1.222
0.871	1.080	0.209	-0.975	0.331	0.644	1.318	1.136	1.124	1.110	1.220	1.225
0.868	1.073	0.205	-0.970	0.331	0.639	1.321	1.139	1.126	1.111	1.218	1.225
0.860	1.066	0.206	-0.963	0.327	0.636	1.321	1.137	1.122	1.107	1.212	1.221
0.857	1.063	0.206	-0.960	0.325	0.634	1.317	1.130	1.113	1.098	1.203	1.213
0.856	1.059	0.203	-0.957	0.326	0.631	1.310	1.124	1.106	1.091	1.197	1.207
0.855	1.060	0.205	-0.957	0.325	0.632	1.306	1.122	1.103	1.088	1.200	1.208
0.855	1.067	0.212	-0.961	0.321	0.639	1.309	1.126	1.108	1.093	1.208	1.213
0.861	1.071	0.210	-0.966	0.325	0.640	1.315	1.134	1.116	1.101	1.216	1.220
0.870	1.073	0.203	-0.971	0.333	0.638	1.321	1.140	1.122	1.105	1.220	1.224
0.869	1.064	0.195	-0.966	0.337	0.629	1.323	1.142	1.122	1.103	1.216	1.222
0.861	1.051	0.190	-0.956	0.335	0.620	1.320	1.136	1.113	1.096	1.207	1.216
0.857	1.045	0.188	-0.951	0.334	0.616	1.315	1.129	1.104	1.089	1.199	1.209
0.853	1.047	0.194	-0.950	0.329	0.620	1.311	1.125	1.098	1.083	1.193	1.205
0.853	1.051	0.198	-0.952	0.327	0.624	1.309	1.123	1.095	1.080	1.193	1.203
0.857	1.058	0.201	-0.957	0.328	0.629	1.309	1.126	1.099	1.083	1.199	1.209
0.861	1.067	0.206	-0.964	0.327	0.636	1.315	1.132	1.108	1.090	1.207	1.215
0.860	1.065	0.205	-0.962	0.327	0.635	1.320	1.137	1.113	1.093	1.212	1.218
0.856	1.054	0.198	-0.955	0.329	0.626	1.322	1.137	1.113	1.093	1.210	1.219
0.854	1.044	0.190	-0.949	0.332	0.617	1.321	1.135	1.107	1.089	1.203	1.215
0.857	1.042	0.185	-0.949	0.336	0.613	1.319	1.131	1.098	1.084	1.194	1.210
0.859	1.042	0.183	-0.950	0.338	0.612	1.314	1.125	1.090	1.075	1.185	1.204
0.850	1.038	0.188	-0.944	0.331	0.613	1.307	1.117	1.081	1.067	1.180	1.198
0.845	1.039	0.194	-0.942	0.325	0.616	1.304	1.115	1.080	1.066	1.183	1.200
0.845	1.043	0.198	-0.944	0.323	0.620	1.306	1.119	1.085	1.071	1.190	1.205
0.847	1.045	0.198	-0.946	0.324	0.621	1.312	1.126	1.093	1.078	1.199	1.212
0.846	1.043	0.197	-0.944	0.324	0.620	1.318	1.130	1.098	1.082	1.203	1.215
0.849	1.037	0.188	-0.943	0.330	0.612	1.320	1.130	1.096	1.082	1.199	1.213
0.847	1.030	0.183	-0.938	0.332	0.606	1.317	1.124	1.088	1.076	1.190	1.207
0.845	1.027	0.182	-0.936	0.331	0.604	1.313	1.119	1.080	1.069	1.182	1.200
0.846	1.029	0.183	-0.937	0.331	0.606	1.308	1.114	1.074	1.063	1.177	1.195
0.845	1.030	0.185	-0.937	0.330	0.607	1.304	1.110	1.070	1.059	1.177	1.194
0.844	1.036	0.192	-0.940	0.326	0.614	1.306	1.113	1.076	1.062	1.184	1.199
0.845	1.040	0.195	-0.942	0.325	0.617	1.310	1.119	1.083	1.068	1.190	1.205
0.848	1.040	0.192	-0.944	0.328	0.616	1.315	1.123	1.089	1.073	1.195	1.210
0.847	1.032	0.185	-0.939	0.331	0.608	1.320	1.126	1.090	1.075	1.194	1.209
0.843	1.023	0.180	-0.933	0.331	0.601	1.319	1.122	1.085	1.070	1.187	1.206
0.840	1.019	0.179	-0.929	0.330	0.599	1.314	1.116	1.077	1.062	1.178	1.198
0.835	1.016	0.181	-0.925	0.327	0.598	1.308	1.109	1.069	1.055	1.170	1.191
0.835	1.018	0.183	-0.926	0.326	0.600	1.303	1.104	1.063	1.049	1.168	1.189
0.838	1.024	0.186	-0.931	0.326	0.605	1.303	1.106	1.067	1.052	1.173	1.193
0.839	1.029	0.190	-0.934	0.324	0.609	1.307	1.111	1.075	1.059	1.181	1.200
0.840	1.030	0.190	-0.935	0.325	0.610	1.312	1.117	1.082	1.065	1.187	1.206
0.842	1.028	0.186	-0.935	0.328	0.607	1.316	1.120	1.086	1.067	1.188	1.207
0.838	1.017	0.179	-0.927	0.329	0.598	1.315	1.118	1.081	1.063	1.182	1.203
0.834	1.012	0.178	-0.923	0.328	0.595	1.312	1.113	1.072	1.058	1.174	1.198
0.834	1.010	0.176	-0.922	0.329	0.593	1.307	1.106	1.064	1.052	1.167	1.192
0.833	1.013	0.180	-0.923	0.326	0.596	1.302	1.102	1.059	1.047	1.164	1.189
0.834	1.019	0.185	-0.926	0.324	0.602	1.299	1.102	1.059	1.047	1.167	1.190
0.832	1.022	0.190	-0.927	0.321	0.606	1.300	1.104	1.064	1.050	1.174	1.195
0.833	1.022	0.189	-0.927	0.322	0.605	1.306	1.111	1.072	1.058	1.181	1.201
0.834	1.019	0.185	-0.926	0.324	0.602	1.311	1.115	1.076	1.061	1.183	1.204
0.831	1.010	0.179	-0.920	0.326	0.594	1.312	1.114	1.074	1.059	1.178	1.200
0.827	1.003	0.176	-0.915	0.325	0.589	1.308	1.110	1.067	1.053	1.171	1.195
0.827	1.000	0.173	-0.913	0.327	0.586	1.304	1.105	1.060	1.047	1.164	1.189
0.828	1.003	0.175	-0.915	0.326	0.589	1.301	1.100	1.054	1.043	1.161	1.185
0.830	1.007	0.177	-0.918	0.326	0.592	1.298	1.096	1.051	1.041	1.161	1.184
0.829	1.012	0.183	-0.920	0.323	0.597	1.298	1.099	1.055	1.044	1.168	1.190
0.828	1.016	0.188	-0.922	0.320	0.602	1.303	1.106	1.064	1.050	1.176	1.196
0.831	1.015	0.184	-0.923	0.323	0.599	1.308	1.111	1.070	1.055	1.179	1.200
0.832	1.009	0.177	-0.920	0.327	0.593	1.311	1.112	1.070	1.056	1.177	1.198
0.830	1.000	0.170	-0.915	0.330	0.585	1.309	1.108	1.065	1.051	1.171	1.194
0.826	0.994	0.168	-0.910	0.329	0.581	1.305	1.101	1.057	1.045	1.163	1.188
0.822	0.991	0.169	-0.906	0.326	0.580	1.299	1.096	1.049	1.038	1.156	1.183
0.821	0.994	0.173	-0.907	0.324	0.583	1.295	1.092	1.046	1.034	1.155	1.180
0.821	0.999	0.178	-0.910	0.321	0.588	1.294	1.094	1.048	1.036	1.160	1.183
0.822	1.004	0.182	-0.913	0.320	0.593	1.297	1.099	1.055	1.042	1.168	1.189
0.825	1.008	0.183	-0.916	0.321	0.595	1.302	1.103	1.062	1.048	1.174	1.195
0.827	1.004	0.177	-0.915	0.325	0.590	1.307	1.108	1.067	1.051	1.175	1.196
0.823	0.994	0.171	-0.908	0.326	0.582	1.308	1.107	1.064	1.049	1.169	1.192
0.820	0.988	0.168	-0.904	0.326	0.578	1.305	1.102	1.056	1.043	1.161	1.186
0.817	0.983	0.166	-0.900	0.325	0.574	1.299	1.093	1.047	1.035	1.153	1.179
0.816	0.984	0.168	-0.900	0.324	0.576	1.293	1.087	1.041	1.030	1.149	1.176
0.816	0.990	0.174	-0.903	0.321	0.582	1.291	1.087	1.042	1.031	1.153	1.179
0.815	0.998	0.183	-0.906	0.316	0.590	1.294	1.093	1.050	1.038	1.163	1.186
0.817	1.002	0.185	-0.909	0.316	0.593	1.300	1.100	1.058	1.045	1.170	1.192
0.818	1.001	0.183	-0.909	0.317	0.592	1.306	1.106	1.065	1.051	1.174	1.196
0.816	0.996	0.180	-0.906	0.318	0.588	1.311	1.108	1.066	1.052	1.172	1.195
0.809	0.988	0.179	-0.898	0.315	0.583	1.310	1.105	1.061	1.049	1.166	1.190
0.806	0.985	0.179	-0.895	0.313	0.582	1.306	1.100	1.054	1.043	1.158	1.183
0.805	0.987	0.182	-0.896	0.311	0.584	1.303	1.097	1.049	1.038	1.154	1.177
0.808	0.998	0.190	-0.903	0.309	0.594	1.300	1.095	1.050	1.038	1.157	1.180
0.811	1.015	0.204	-0.913	0.303	0.609	1.303	1.098	1.058	1.046	1.168	1.188
0.813	1.026	0.213	-0.919	0.300	0.619	1.309	1.103	1.069	1.056	1.179	1.197
0.814	1.030	0.216	-0.922	0.299	0.623	1.316	1.107	1.077	1.064	1.186	1.204
0.815	1.029	0.214	-0.922	0.300	0.621	1.320	1.110	1.082	1.069	1.187	1.207
0.814	1.026	0.212	-0.920	0.301	0.619	1.319	1.106	1.078	1.067	1.182	1.203
0.809	1.023	0.214	-0.916	0.297	0.618	1.318	1.101	1.072	1.062	1.174	1.196
0.803	1.021	0.218	-0.912	0.292	0.619	1.319	1.099	1.067	1.055	1.167	1.190
0.800	1.022	0.222	-0.911	0.289	0.622	1.318	1.096	1.063	1.051	1.165	1.187
0.801	1.028	0.227	-0.914	0.287	0.627	1.319	1.098	1.066	1.055	1.170	1.191
0.805	1.039	0.234	-0.922	0.285	0.636	1.320	1.102	1.076	1.064	1.181	1.201
0.813	1.054	0.241	-0.933	0.286	0.647	1.324	1.109	1.091	1.077	1.193	1.212
0.819	1.065	0.246	-0.942	0.286	0.655	1.326	1.112	1.099	1.087	1.199	1.218
0.818	1.064	0.246	-0.941	0.286	0.655	1.321	1.104	1.095	1.085	1.196	1.216
0.817	1.060	0.243	-0.938	0.287	0.651	1.305	1.088	1.083	1.077	1.188	1.210
0.814	1.056	0.242	-0.935	0.286	0.649	1.291	1.074	1.071	1.068	1.182	1.205
0.811	1.060	0.249	-0.935	0.281	0.654	1.284	1.067	1.064	1.064	1.179	1.203
0.810	1.065	0.255	-0.937	0.277	0.660	1.279	1.062	1.060	1.062	1.180	1.206
0.808	1.073	0.265	-0.940	0.271	0.669	1.280	1.063	1.064	1.066	1.188	1.213
0.809	1.079	0.270	-0.944	0.269	0.674	1.285	1.071	1.075	1.075	1.198	1.220
0.813	1.080	0.267	-0.946	0.273	0.673	1.290	1.080	1.083	1.082	1.204	1.225
0.816	1.073	0.257	-0.944	0.279	0.665	1.294	1.085	1.086	1.085	1.201	1.223
0.816	1.062	0.246	-0.939	0.285	0.654	1.291	1.083	1.079	1.078	1.191	1.216
0.814	1.049	0.235	-0.931	0.289	0.642	1.285	1.077	1.068	1.068	1.181	1.207
0.813	1.045	0.232	-0.929	0.290	0.638	1.277	1.073	1.060	1.060	1.176	1.202
0.820	1.053	0.233	-0.936	0.293	0.643	1.271	1.072	1.057	1.058	1.178	1.204
0.826	1.064	0.238	-0.945	0.294	0.651	1.272	1.076	1.062	1.064	1.186	1.212
0.828	1.072	0.244	-0.950	0.292	0.658	1.277	1.083	1.072	1.073	1.196	1.220
0.831	1.074	0.243	-0.952	0.294	0.658	1.283	1.090	1.079	1.080	1.203	1.226
0.831	1.070	0.239	-0.950	0.296	0.654	1.288	1.092	1.083	1.084	1.203	1.226
0.826	1.062	0.236	-0.944	0.295	0.649	1.288	1.088	1.078	1.078	1.196	1.222
0.821	1.049	0.228	-0.935	0.296	0.638	1.282	1.079	1.064	1.067	1.183	1.213
0.817	1.036	0.219	-0.926	0.299	0.627	1.275	1.070	1.050	1.054	1.171	1.204
0.816	1.030	0.214	-0.923	0.301	0.622	1.270	1.064	1.040	1.045	1.165	1.197
0.815	1.027	0.212	-0.921	0.301	0.619	1.267	1.061	1.036	1.039	1.165	1.196
0.811	1.023	0.212	-0.917	0.299	0.617	1.269	1.064	1.038	1.041	1.170	1.199
0.804	1.013	0.209	-0.908	0.297	0.611	1.275	1.069	1.041	1.043	1.170	1.200
0.802	1.000	0.198	-0.901	0.302	0.599	1.283	1.076	1.045	1.045	1.167	1.198
0.794	0.977	0.183	-0.885	0.305	0.580	1.282	1.074	1.039	1.038	1.156	1.188
0.782	0.956	0.174	-0.869	0.304	0.565	1.279	1.070	1.031	1.030	1.144	1.178
0.777	0.945	0.168	-0.861	0.304	0.556	1.277	1.068	1.023	1.020	1.133	1.167
0.769	0.934	0.165	-0.851	0.302	0.549	1.273	1.063	1.013	1.009	1.124	1.159
0.771	0.935	0.164	-0.853	0.303	0.549	1.272	1.062	1.010	1.006	1.126	1.160
0.781	0.945	0.164	-0.863	0.308	0.554	1.276	1.069	1.015	1.010	1.134	1.166
0.786	0.949	0.163	-0.867	0.311	0.556	1.284	1.079	1.025	1.017	1.142	1.173
0.795	0.951	0.156	-0.873	0.319	0.553	1.291	1.086	1.032	1.023	1.147	1.178
0.803	0.949	0.146	-0.876	0.328	0.547	1.295	1.088	1.032	1.022	1.143	1.176
0.800	0.938	0.138	-0.869	0.331	0.538	1.292	1.082	1.025	1.016	1.135	1.170
0.796	0.931	0.135	-0.863	0.330	0.533	1.285	1.075	1.014	1.008	1.126	1.164
0.799	0.935	0.136	-0.867	0.331	0.535	1.282	1.071	1.009	1.002	1.121	1.159
0.800	0.938	0.138	-0.869	0.331	0.538	1.277	1.068	1.005	0.997	1.119	1.156
0.793	0.935	0.142	-0.864	0.325	0.538	1.275	1.067	1.006	0.998	1.123	1.159
0.791	0.937	0.146	-0.864	0.322	0.541	1.278	1.073	1.014	1.006	1.131	1.167
0.796	0.939	0.143	-0.867	0.326	0.541	1.283	1.079	1.020	1.013	1.136	1.172
0.801	0.938	0.137	-0.869	0.332	0.537	1.287	1.083	1.023	1.015	1.137	1.172
0.797	0.928	0.131	-0.862	0.333	0.529	1.288	1.081	1.020	1.011	1.131	1.168
0.790	0.919	0.129	-0.854	0.330	0.524	1.283	1.074	1.012	1.005	1.123	1.161
0.792	0.922	0.130	-0.857	0.331	0.526	1.279	1.069	1.005	1.000	1.118	1.157
0.797	0.930	0.133	-0.863	0.332	0.531	1.275	1.067	1.000	0.996	1.115	1.154
0.792	0.928	0.136	-0.860	0.328	0.532	1.270	1.066	0.999	0.995	1.117	1.156
0.783	0.924	0.141	-0.853	0.321	0.532	1.272	1.069	1.005	1.000	1.122	1.160
0.778	0.918	0.140	-0.848	0.319	0.529	1.276	1.074	1.012	1.005	1.128	1.165
0.772	0.909	0.137	-0.840	0.317	0.523	1.278	1.075	1.013	1.005	1.127	1.163
0.763	0.896	0.133	-0.829	0.315	0.514	1.276	1.071	1.009	1.003	1.121	1.160
0.760	0.892	0.132	-0.826	0.314	0.512	1.273	1.066	1.004	0.999	1.113	1.155
0.759	0.892	0.133	-0.825	0.313	0.512	1.268	1.061	0.999	0.994	1.108	1.150
0.767	0.904	0.137	-0.835	0.315	0.520	1.264	1.058	0.995	0.991	1.106	1.149
0.780	0.922	0.142	-0.851	0.319	0.532	1.265	1.061	0.999	0.997	1.116	1.158
0.803	0.951	0.148	-0.877	0.327	0.549	1.275	1.072	1.013	1.009	1.132	1.170
0.815	0.963	0.148	-0.889	0.333	0.555	1.282	1.080	1.022	1.017	1.141	1.176
0.804	0.951	0.147	-0.877	0.328	0.549	1.283	1.080	1.024	1.018	1.140	1.175
0.793	0.935	0.142	-0.864	0.325	0.538	1.283	1.079	1.025	1.020	1.138	1.175
0.799	0.938	0.139	-0.868	0.330	0.538	1.284	1.079	1.023	1.020	1.134	1.173
0.798	0.933	0.135	-0.865	0.331	0.534	1.278	1.072	1.013	1.012	1.125	1.165
0.791	0.929	0.138	-0.860	0.326	0.533	1.272	1.066	1.006	1.006	1.119	1.160
0.793	0.935	0.142	-0.864	0.325	0.538	1.268	1.066	1.004	1.005	1.120	1.157
0.788	0.934	0.146	-0.861	0.321	0.540	1.270	1.072	1.011	1.008	1.124	1.160
0.790	0.940	0.150	-0.865	0.320	0.545	1.286	1.093	1.031	1.021	1.135	1.168
0.798	0.944	0.146	-0.871	0.326	0.545	1.313	1.124	1.057	1.033	1.139	1.168
0.796	0.930	0.134	-0.863	0.331	0.532	1.345	1.164	1.085	1.038	1.129	1.156
0.789	0.912	0.123	-0.850	0.333	0.517	1.386	1.214	1.117	1.038	1.112	1.137
0.779	0.902	0.123	-0.840	0.328	0.512	1.431	1.266	1.151	1.031	1.090	1.114
0.766	0.899	0.133	-0.832	0.316	0.516	1.479	1.328	1.192	1.021	1.069	1.091
0.761	0.907	0.146	-0.834	0.307	0.526	1.528	1.410	1.259	1.023	1.060	1.080
0.769	0.930	0.161	-0.849	0.304	0.545	1.577	1.504	1.349	1.045	1.071	1.086
0.785	0.974	0.189	-0.879	0.298	0.581	1.618	1.589	1.448	1.087	1.105	1.112
0.816	1.022	0.206	-0.919	0.305	0.614	1.634	1.659	1.531	1.146	1.149	1.148
0.849	1.043	0.194	-0.946	0.327	0.618	1.608	1.684	1.566	1.216	1.202	1.193
0.885	1.055	0.170	-0.970	0.357	0.612	1.532	1.642	1.546	1.303	1.273	1.256
0.932	1.102	0.170	-1.017	0.381	0.636	1.416	1.528	1.479	1.417	1.375	1.346
0.987	1.190	0.203	-1.088	0.392	0.696	1.240	1.323	1.339	1.551	1.504	1.458
1.040	1.292	0.252	-1.166	0.394	0.772	1.016	1.046	1.136	1.689	1.655	1.591
1.084	1.421	0.337	-1.252	0.373	0.879	0.786	0.736	0.905	1.828	1.822	1.736
1.124	1.558	0.434	-1.341	0.345	0.996	0.586	0.461	0.692	1.951	1.979	1.869
1.148	1.678	0.530	-1.413	0.309	1.104	0.441	0.239	0.512	2.040	2.099	1.968
1.157	1.755	0.598	-1.456	0.279	1.176	0.337	0.070	0.356	2.079	2.167	2.023
1.142	1.778	0.636	-1.460	0.253	1.207	0.289	0.001	0.228	2.078	2.179	2.026
1.084	1.764	0.680	-1.424	0.202	1.222	0.322	0.001	0.113	2.011	2.115	1.966
0.992	1.695	0.703	-1.343	0.144	1.199	0.410	0.001	0.001	1.846	1.968	1.844
0.876	1.584	0.708	-1.230	0.084	1.146	0.552	0.001	0.001	1.592	1.760	1.680
0.775	1.477	0.702	-1.126	0.036	1.089	0.713	0.001	0.001	1.367	1.573	1.531
0.711	1.408	0.697	-1.059	0.007	1.052	0.871	0.088	0.001	1.194	1.424	1.412
0.665	1.352	0.687	-1.008	-0.011	1.019	1.030	0.241	0.001	0.999	1.290	1.317
0.629	1.301	0.672	-0.965	-0.022	0.986	1.169	0.363	0.001	0.796	1.162	1.234
0.595	1.217	0.622	-0.906	-0.014	0.919	1.305	0.469	0.057	0.641	1.059	1.161
0.562	1.117	0.555	-0.839	0.003	0.836	1.437	0.554	0.134	0.592	1.008	1.114
0.546	1.027	0.481	-0.786	0.032	0.754	1.554	0.633	0.233	0.626	0.994	1.087
0.548	0.951	0.403	-0.749	0.072	0.677	1.645	0.714	0.335	0.675	0.990	1.069
0.551	0.890	0.339	-0.720	0.106	0.614	1.707	0.779	0.416	0.706	0.983	1.054
0.556	0.848	0.292	-0.702	0.132	0.570	1.728	0.819	0.479	0.726	0.981	1.051
0.569	0.825	0.256	-0.697	0.156	0.540	1.724	0.841	0.525	0.738	0.982	1.053
0.579	0.803	0.224	-0.691	0.177	0.513	1.738	0.861	0.559	0.743	0.980	1.052
0.589	0.778	0.189	-0.683	0.200	0.483	1.758	0.886	0.591	0.751	0.980	1.051
0.594	0.748	0.154	-0.671	0.220	0.451	1.761	0.912	0.625	0.764	0.979	1.050
0.599	0.725	0.126	-0.662	0.236	0.425	1.745	0.943	0.660	0.777	0.978	1.047
0.606	0.712	0.106	-0.659	0.250	0.409	1.727	0.974	0.692	0.788	0.977	1.044
0.613	0.710	0.097	-0.661	0.258	0.403	1.717	1.009	0.729	0.803	0.981	1.045
0.629	0.725	0.096	-0.677	0.266	0.410	1.705	1.046	0.772	0.826	0.995	1.055
0.647	0.749	0.102	-0.698	0.272	0.425	1.696	1.084	0.823	0.856	1.016	1.070
0.665	0.775	0.110	-0.720	0.277	0.442	1.691	1.128	0.879	0.890	1.039	1.088
0.683	0.797	0.114	-0.740	0.284	0.455	1.676	1.166	0.932	0.923	1.061	1.105
0.702	0.818	0.116	-0.760	0.293	0.467	1.639	1.183	0.977	0.951	1.078	1.119
0.717	0.840	0.123	-0.778	0.297	0.481	1.584	1.183	1.011	0.974	1.088	1.129
0.733	0.862	0.129	-0.797	0.302	0.495	1.521	1.174	1.034	0.989	1.094	1.134
0.749	0.887	0.138	-0.818	0.305	0.512	1.456	1.157	1.050	1.002	1.103	1.142
0.771	0.919	0.148	-0.845	0.311	0.533	1.399	1.140	1.065	1.016	1.115	1.152
0.788	0.946	0.158	-0.867	0.315	0.552	1.367	1.135	1.081	1.029	1.128	1.161
0.797	0.959	0.162	-0.878	0.317	0.560	1.356	1.140	1.096	1.040	1.139	1.169
0.800	0.959	0.159	-0.879	0.320	0.559	1.355	1.147	1.108	1.050	1.146	1.177
0.798	0.951	0.153	-0.874	0.322	0.552	1.354	1.152	1.117	1.055	1.147	1.179
0.798	0.945	0.147	-0.871	0.325	0.546	1.350	1.152	1.121	1.057	1.145	1.178
0.804	0.949	0.145	-0.876	0.329	0.547	1.344	1.150	1.122	1.056	1.142	1.176
0.809	0.954	0.145	-0.881	0.332	0.549	1.334	1.145	1.118	1.053	1.136	1.170
0.804	0.953	0.149	-0.878	0.327	0.551	1.320	1.139	1.115	1.050	1.133	1.167
0.800	0.955	0.155	-0.877	0.322	0.555	1.312	1.139	1.120	1.053	1.139	1.171
0.798	0.961	0.163	-0.879	0.317	0.562	1.310	1.144	1.133	1.062	1.150	1.180
0.805	0.970	0.165	-0.887	0.320	0.567	1.311	1.150	1.144	1.071	1.159	1.187
0.806	0.966	0.160	-0.886	0.323	0.563	1.309	1.154	1.150	1.076	1.161	1.189
0.802	0.958	0.156	-0.880	0.323	0.557	1.306	1.154	1.154	1.078	1.159	1.187
0.808	0.962	0.154	-0.885	0.327	0.558	1.303	1.153	1.156	1.080	1.157	1.187
0.825	0.981	0.156	-0.903	0.334	0.568	1.302	1.153	1.156	1.080	1.155	1.187
0.838	0.995	0.157	-0.916	0.340	0.576	1.297	1.152	1.156	1.078	1.154	1.186
0.836	0.997	0.161	-0.916	0.337	0.579	1.291	1.151	1.157	1.077	1.154	1.185
0.827	0.995	0.168	-0.911	0.329	0.581	1.288	1.153	1.164	1.081	1.161	1.190
0.828	0.998	0.170	-0.913	0.329	0.584	1.290	1.159	1.174	1.090	1.170	1.197
0.830	1.000	0.170	-0.915	0.330	0.585	1.294	1.166	1.182	1.098	1.177	1.202
0.831	0.996	0.165	-0.913	0.333	0.580	1.297	1.170	1.187	1.102	1.176	1.203
0.829	0.990	0.161	-0.909	0.334	0.575	1.294	1.167	1.186	1.099	1.170	1.198
0.826	0.986	0.160	-0.906	0.333	0.573	1.288	1.162	1.181	1.093	1.162	1.191
0.823	0.985	0.162	-0.904	0.330	0.573	1.281	1.157	1.177	1.089	1.158	1.187
0.825	0.993	0.168	-0.909	0.328	0.580	1.277	1.156	1.176	1.086	1.157	1.186
0.826	1.000	0.174	-0.913	0.326	0.587	1.277	1.160	1.183	1.091	1.164	1.190
0.827	1.007	0.180	-0.917	0.323	0.593	1.281	1.167	1.194	1.099	1.174	1.198
0.829	1.011	0.182	-0.920	0.323	0.596	1.288	1.174	1.206	1.108	1.181	1.205
0.832	1.010	0.178	-0.921	0.327	0.594	1.293	1.179	1.213	1.115	1.184	1.209
0.835	1.009	0.174	-0.922	0.330	0.591	1.296	1.182	1.215	1.116	1.182	1.206
0.833	1.008	0.175	-0.920	0.329	0.591	1.292	1.177	1.211	1.111	1.175	1.198
0.826	1.001	0.175	-0.913	0.325	0.588	1.284	1.169	1.204	1.103	1.166	1.190
0.819	0.998	0.179	-0.908	0.320	0.588	1.278	1.165	1.202	1.100	1.163	1.187
0.821	1.008	0.187	-0.914	0.317	0.597	1.277	1.168	1.208	1.104	1.169	1.192
0.825	1.020	0.195	-0.922	0.315	0.607	1.282	1.175	1.219	1.114	1.180	1.201
0.829	1.027	0.198	-0.928	0.315	0.612	1.289	1.185	1.233	1.126	1.191	1.209
0.833	1.028	0.195	-0.930	0.319	0.611	1.296	1.193	1.244	1.134	1.195	1.215
0.836	1.027	0.191	-0.931	0.322	0.609	1.299	1.195	1.247	1.136	1.193	1.214
0.833	1.023	0.190	-0.928	0.321	0.606	1.298	1.191	1.245	1.132	1.187	1.210
0.831	1.023	0.192	-0.927	0.319	0.607	1.294	1.187	1.242	1.129	1.182	1.205
0.831	1.027	0.196	-0.929	0.317	0.611	1.290	1.185	1.241	1.128	1.180	1.202
0.832	1.033	0.201	-0.932	0.315	0.617	1.288	1.185	1.245	1.130	1.183	1.203
0.832	1.041	0.209	-0.936	0.311	0.625	1.290	1.191	1.255	1.137	1.192	1.211
0.841	1.054	0.213	-0.947	0.314	0.633	1.299	1.203	1.271	1.151	1.206	1.221
0.848	1.061	0.213	-0.954	0.317	0.637	1.307	1.212	1.284	1.160	1.213	1.227
0.845	1.053	0.208	-0.949	0.318	0.630	1.309	1.215	1.290	1.164	1.212	1.227
0.840	1.045	0.205	-0.942	0.317	0.625	1.307	1.214	1.290	1.163	1.206	1.223
0.840	1.045	0.205	-0.942	0.317	0.625	1.304	1.211	1.288	1.160	1.201	1.217
0.837	1.046	0.209	-0.941	0.314	0.627	1.298	1.206	1.285	1.157	1.196	1.211
0.835	1.050	0.215	-0.942	0.310	0.632	1.292	1.204	1.287	1.156	1.196	1.210
0.835	1.059	0.224	-0.947	0.305	0.641	1.292	1.208	1.296	1.164	1.206	1.217
0.839	1.071	0.232	-0.955	0.303	0.651	1.300	1.219	1.313	1.178	1.220	1.229
0.849	1.083	0.234	-0.966	0.307	0.658	1.309	1.231	1.330	1.191	1.230	1.238
0.855	1.085	0.230	-0.970	0.312	0.657	1.315	1.239	1.342	1.200	1.234	1.243
0.855	1.081	0.226	-0.968	0.314	0.653	1.317	1.241	1.347	1.203	1.231	1.242
0.852	1.078	0.226	-0.965	0.313	0.652	1.314	1.241	1.348	1.203	1.226	1.239
0.854	1.082	0.228	-0.968	0.313	0.655	1.309	1.239	1.348	1.204	1.224	1.236
0.856	1.092	0.236	-0.974	0.310	0.664	1.307	1.240	1.353	1.207	1.226	1.237
0.860	1.104	0.244	-0.982	0.308	0.674	1.308	1.246	1.362	1.215	1.234	1.242
0.860	1.112	0.252	-0.986	0.304	0.682	1.310	1.254	1.375	1.226	1.245	1.250
0.860	1.115	0.255	-0.987	0.302	0.685	1.315	1.263	1.392	1.239	1.256	1.260
0.860	1.114	0.254	-0.987	0.303	0.684	1.320	1.272	1.406	1.249	1.262	1.264
0.854	1.105	0.251	-0.979	0.301	0.678	1.322	1.276	1.413	1.254	1.261	1.263
0.849	1.098	0.249	-0.973	0.300	0.673	1.318	1.276	1.414	1.254	1.256	1.259
0.848	1.101	0.253	-0.974	0.297	0.677	1.312	1.273	1.414	1.254	1.253	1.256
0.854	1.111	0.257	-0.982	0.298	0.684	1.309	1.275	1.419	1.258	1.255	1.257
0.861	1.124	0.263	-0.992	0.299	0.693	1.307	1.279	1.425	1.265	1.260	1.260
0.863	1.133	0.270	-0.998	0.296	0.701	1.310	1.289	1.439	1.277	1.273	1.270
0.871	1.149	0.278	-1.010	0.296	0.713	1.319	1.302	1.459	1.294	1.289	1.282
0.874	1.151	0.277	-1.012	0.298	0.714	1.324	1.312	1.472	1.306	1.296	1.288
0.872	1.143	0.271	-1.007	0.300	0.707	1.325	1.316	1.478	1.313	1.296	1.288
0.867	1.134	0.267	-1.000	0.300	0.700	1.322	1.317	1.480	1.316	1.293	1.286
0.862	1.128	0.266	-0.995	0.298	0.697	1.317	1.314	1.478	1.315	1.288	1.283
0.861	1.131	0.270	-0.996	0.295	0.700	1.312	1.312	1.476	1.315	1.286	1.280
0.865	1.140	0.275	-1.002	0.295	0.707	1.308	1.314	1.478	1.319	1.291	1.282
0.877	1.161	0.284	-1.019	0.296	0.722	1.312	1.324	1.491	1.332	1.306	1.293
0.895	1.183	0.288	-1.039	0.303	0.735	1.320	1.337	1.505	1.345	1.318	1.304
0.897	1.184	0.287	-1.040	0.305	0.735	1.324	1.344	1.514	1.354	1.325	1.311
0.895	1.179	0.284	-1.037	0.305	0.731	1.328	1.350	1.520	1.362	1.330	1.315
0.897	1.175	0.278	-1.036	0.309	0.726	1.329	1.352	1.519	1.363	1.326	1.313
0.894	1.169	0.275	-1.031	0.309	0.722	1.324	1.347	1.511	1.357	1.317	1.306
0.884	1.159	0.275	-1.021	0.304	0.717	1.316	1.340	1.501	1.349	1.309	1.299
0.882	1.161	0.279	-1.021	0.301	0.720	1.311	1.336	1.495	1.346	1.308	1.297
0.889	1.175	0.286	-1.032	0.301	0.730	1.311	1.338	1.496	1.348	1.314	1.302
0.897	1.190	0.293	-1.043	0.302	0.741	1.315	1.344	1.502	1.356	1.325	1.310
0.905	1.197	0.292	-1.051	0.306	0.744	1.321	1.351	1.507	1.364	1.332	1.317
0.903	1.190	0.287	-1.046	0.308	0.738	1.323	1.351	1.504	1.363	1.331	1.316
0.887	1.168	0.281	-1.027	0.303	0.724	1.319	1.345	1.493	1.355	1.323	1.310
0.877	1.156	0.279	-1.016	0.299	0.717	1.314	1.336	1.480	1.345	1.313	1.302
0.872	1.150	0.278	-1.011	0.297	0.714	1.306	1.325	1.462	1.333	1.303	1.293
0.870	1.151	0.281	-1.010	0.294	0.716	1.300	1.315	1.447	1.323	1.297	1.289
0.874	1.159	0.285	-1.016	0.294	0.722	1.297	1.309	1.436	1.317	1.297	1.288
0.871	1.161	0.290	-1.016	0.290	0.725	1.297	1.306	1.430	1.314	1.300	1.288
0.866	1.159	0.293	-1.012	0.286	0.726	1.300	1.305	1.426	1.315	1.305	1.292
0.864	1.156	0.292	-1.010	0.286	0.724	1.304	1.304	1.420	1.315	1.306	1.294
0.861	1.146	0.285	-1.003	0.288	0.715	1.305	1.299	1.410	1.309	1.300	1.292
0.857	1.136	0.279	-0.996	0.289	0.707	1.303	1.288	1.393	1.297	1.288	1.284
0.854	1.128	0.274	-0.991	0.290	0.701	1.299	1.276	1.372	1.282	1.275	1.273
0.849	1.123	0.274	-0.986	0.287	0.698	1.293	1.262	1.352	1.266	1.265	1.264
0.847	1.122	0.275	-0.984	0.286	0.698	1.289	1.252	1.334	1.253	1.257	1.257
0.843	1.122	0.279	-0.982	0.282	0.700	1.289	1.245	1.322	1.244	1.256	1.257
0.840	1.122	0.282	-0.981	0.279	0.702	1.292	1.242	1.316	1.241	1.259	1.260
0.845	1.124	0.279	-0.984	0.283	0.701	1.300	1.241	1.311	1.239	1.262	1.263
0.846	1.118	0.272	-0.982	0.287	0.695	1.305	1.237	1.300	1.230	1.256	1.259
0.842	1.106	0.264	-0.974	0.289	0.685	1.304	1.226	1.281	1.214	1.242	1.248
0.834	1.091	0.257	-0.962	0.288	0.674	1.300	1.210	1.258	1.196	1.225	1.235
0.822	1.077	0.255	-0.949	0.283	0.666	1.293	1.193	1.233	1.176	1.209	1.223
0.815	1.070	0.255	-0.942	0.280	0.662	1.287	1.180	1.213	1.159	1.200	1.214
0.812	1.069	0.257	-0.940	0.277	0.663	1.284	1.171	1.200	1.148	1.197	1.212
0.812	1.072	0.260	-0.942	0.276	0.666	1.286	1.168	1.194	1.143	1.200	1.214
0.811	1.070	0.259	-0.940	0.276	0.664	1.291	1.167	1.190	1.140	1.202	1.214
0.808	1.060	0.252	-0.934	0.278	0.656	1.296	1.166	1.183	1.135	1.199	1.213
0.798	1.043	0.245	-0.920	0.276	0.644	1.296	1.159	1.171	1.124	1.188	1.205
0.787	1.026	0.239	-0.906	0.274	0.632	1.292	1.147	1.153	1.109	1.174	1.195
0.782	1.016	0.234	-0.899	0.274	0.625	1.284	1.132	1.133	1.093	1.161	1.183
0.781	1.013	0.232	-0.897	0.274	0.622	1.278	1.120	1.117	1.079	1.152	1.176
0.783	1.016	0.233	-0.899	0.275	0.624	1.275	1.116	1.109	1.073	1.151	1.176
0.785	1.020	0.235	-0.902	0.275	0.627	1.278	1.116	1.107	1.071	1.155	1.178
0.783	1.020	0.237	-0.901	0.273	0.628	1.283	1.118	1.108	1.074	1.159	1.183
0.784	1.016	0.232	-0.900	0.276	0.624	1.289	1.120	1.108	1.074	1.161	1.185
0.781	1.005	0.224	-0.893	0.278	0.614	1.290	1.117	1.103	1.070	1.157	1.183
0.780	0.996	0.216	-0.888	0.282	0.606	1.289	1.111	1.094	1.062	1.148	1.176
0.772	0.986	0.214	-0.879	0.279	0.600	1.283	1.100	1.079	1.050	1.134	1.165
0.767	0.979	0.212	-0.873	0.277	0.595	1.274	1.090	1.065	1.037	1.124	1.157
0.770	0.979	0.209	-0.874	0.280	0.594	1.269	1.084	1.057	1.031	1.123	1.155
0.774	0.988	0.214	-0.881	0.280	0.601	1.270	1.086	1.058	1.031	1.129	1.160
0.774	0.993	0.219	-0.883	0.277	0.606	1.276	1.091	1.064	1.036	1.138	1.167
0.770	0.988	0.218	-0.879	0.276	0.603	1.280	1.094	1.068	1.041	1.142	1.172
0.774	0.986	0.212	-0.880	0.281	0.599	1.285	1.099	1.071	1.042	1.142	1.174
0.773	0.977	0.204	-0.875	0.284	0.590	1.285	1.095	1.065	1.036	1.134	1.168
0.766	0.964	0.198	-0.865	0.284	0.581	1.279	1.086	1.054	1.027	1.124	1.161
0.761	0.957	0.196	-0.859	0.282	0.576	1.273	1.078	1.044	1.019	1.116	1.156
0.759	0.959	0.200	-0.859	0.279	0.579	1.269	1.072	1.037	1.012	1.112	1.151
0.760	0.969	0.209	-0.864	0.275	0.589	1.267	1.071	1.036	1.011	1.115	1.152
0.759	0.977	0.218	-0.868	0.270	0.597	1.272	1.076	1.044	1.018	1.124	1.160
0.760	0.976	0.216	-0.868	0.272	0.596	1.280	1.085	1.054	1.027	1.133	1.169
0.765	0.974	0.209	-0.869	0.278	0.591	1.287	1.092	1.061	1.033	1.138	1.174
0.762	0.968	0.206	-0.865	0.278	0.587	1.289	1.092	1.060	1.032	1.134	1.172
0.750	0.954	0.204	-0.852	0.273	0.579	1.284	1.084	1.051	1.024	1.123	1.163
0.750	0.950	0.200	-0.850	0.275	0.575	1.278	1.076	1.042	1.015	1.114	1.156
0.749	0.952	0.203	-0.850	0.273	0.577	1.274	1.071	1.037	1.009	1.109	1.152
0.748	0.959	0.211	-0.853	0.268	0.585	1.273	1.071	1.037	1.009	1.110	1.154
0.748	0.965	0.217	-0.856	0.265	0.591	1.275	1.075	1.042	1.012	1.116	1.159
0.750	0.970	0.220	-0.860	0.265	0.595	1.280	1.081	1.051	1.020	1.126	1.166
0.753	0.973	0.220	-0.863	0.266	0.596	1.288	1.089	1.061	1.029	1.133	1.173
0.754	0.967	0.213	-0.860	0.270	0.590	1.291	1.091	1.064	1.029	1.131	1.171
0.745	0.953	0.208	-0.849	0.268	0.580	1.289	1.087	1.059	1.024	1.123	1.165
0.732	0.944	0.212	-0.838	0.260	0.578	1.286	1.083	1.055	1.021	1.118	1.161
0.735	0.952	0.217	-0.843	0.259	0.584	1.283	1.080	1.051	1.016	1.114	1.155
0.740	0.958	0.218	-0.849	0.261	0.588	1.278	1.076	1.047	1.011	1.111	1.152
0.745	0.970	0.225	-0.857	0.260	0.597	1.279	1.080	1.053	1.015	1.119	1.159
0.751	0.982	0.231	-0.866	0.260	0.606	1.284	1.088	1.064	1.023	1.128	1.166
0.755	0.984	0.229	-0.869	0.263	0.606	1.291	1.096	1.073	1.031	1.136	1.173
0.756	0.980	0.224	-0.868	0.266	0.602	1.296	1.102	1.078	1.035	1.138	1.175
0.749	0.971	0.222	-0.860	0.263	0.596	1.295	1.102	1.077	1.035	1.134	1.172
0.744	0.966	0.222	-0.855	0.261	0.594	1.292	1.097	1.072	1.030	1.126	1.166
0.739	0.960	0.221	-0.849	0.259	0.590	1.285	1.089	1.063	1.021	1.117	1.157
0.737	0.958	0.221	-0.847	0.258	0.589	1.278	1.084	1.057	1.015	1.113	1.153
0.742	0.966	0.224	-0.854	0.259	0.595	1.275	1.083	1.058	1.015	1.115	1.153
0.747	0.975	0.228	-0.861	0.259	0.601	1.277	1.088	1.066	1.021	1.123	1.159
0.748	0.979	0.231	-0.863	0.258	0.605	1.283	1.097	1.076	1.031	1.133	1.167
0.750	0.980	0.230	-0.865	0.260	0.605	1.290	1.104	1.085	1.038	1.138	1.171
0.753	0.975	0.222	-0.864	0.265	0.598	1.293	1.107	1.087	1.039	1.135	1.170
0.751	0.967	0.216	-0.859	0.267	0.591	1.290	1.104	1.082	1.035	1.127	1.164
0.746	0.960	0.214	-0.853	0.266	0.587	1.285	1.099	1.075	1.028	1.120	1.158
0.746	0.961	0.215	-0.853	0.265	0.588	1.278	1.093	1.067	1.020	1.113	1.152
0.751	0.968	0.217	-0.859	0.267	0.592	1.271	1.089	1.063	1.016	1.113	1.149
0.758	0.979	0.221	-0.868	0.268	0.600	1.271	1.092	1.068	1.020	1.121	1.155
0.762	0.986	0.224	-0.874	0.269	0.605	1.276	1.099	1.077	1.028	1.129	1.161
0.762	0.985	0.223	-0.873	0.269	0.604	1.281	1.105	1.084	1.036	1.135	1.167
0.766	0.986	0.220	-0.876	0.273	0.603	1.286	1.110	1.088	1.041	1.136	1.168
0.765	0.981	0.216	-0.873	0.274	0.598	1.284	1.108	1.084	1.037	1.129	1.164
0.764	0.975	0.211	-0.869	0.276	0.593	1.278	1.102	1.076	1.031	1.121	1.157
0.762	0.973	0.211	-0.867	0.275	0.592	1.272	1.096	1.068	1.025	1.114	1.152
0.760	0.975	0.215	-0.867	0.272	0.595	1.268	1.092	1.064	1.021	1.114	1.151
0.765	0.984	0.219	-0.874	0.273	0.601	1.267	1.094	1.067	1.024	1.120	1.156
0.766	0.990	0.224	-0.878	0.271	0.607	1.271	1.100	1.076	1.032	1.130	1.163
0.767	0.994	0.227	-0.880	0.270	0.610	1.278	1.109	1.084	1.040	1.137	1.170
0.765	0.989	0.224	-0.877	0.270	0.606	1.281	1.113	1.087	1.044	1.136	1.169
0.759	0.978	0.219	-0.868	0.270	0.598	1.279	1.110	1.084	1.041	1.131	1.166
0.763	0.977	0.214	-0.870	0.274	0.595	1.276	1.106	1.079	1.036	1.124	1.161
0.763	0.975	0.212	-0.869	0.275	0.593	1.271	1.100	1.071	1.029	1.116	1.155
0.765	0.979	0.214	-0.872	0.275	0.596	1.265	1.095	1.065	1.025	1.113	1.151
0.766	0.983	0.217	-0.874	0.274	0.600	1.262	1.094	1.064	1.024	1.116	1.153
0.764	0.988	0.224	-0.876	0.270	0.606	1.265	1.098	1.071	1.030	1.126	1.160
0.767	0.996	0.229	-0.881	0.269	0.612	1.272	1.107	1.081	1.039	1.136	1.168
0.774	1.002	0.228	-0.888	0.273	0.615	1.278	1.113	1.088	1.046	1.142	1.174
0.777	0.999	0.222	-0.888	0.277	0.610	1.281	1.115	1.087	1.044	1.139	1.171
0.773	0.988	0.215	-0.880	0.279	0.601	1.277	1.110	1.079	1.038	1.130	1.164
0.770	0.982	0.212	-0.876	0.279	0.597	1.271	1.102	1.069	1.030	1.119	1.155
0.766	0.977	0.211	-0.871	0.277	0.594	1.263	1.093	1.058	1.021	1.110	1.148
0.763	0.978	0.215	-0.870	0.274	0.596	1.258	1.089	1.054	1.018	1.110	1.147
0.762	0.984	0.222	-0.873	0.270	0.603	1.259	1.092	1.058	1.022	1.117	1.152
0.763	0.992	0.229	-0.877	0.267	0.610	1.264	1.099	1.067	1.030	1.126	1.160
0.766	0.994	0.228	-0.880	0.269	0.611	1.270	1.106	1.074	1.035	1.130	1.165
0.763	0.986	0.223	-0.874	0.270	0.604	1.272	1.107	1.075	1.035	1.129	1.165
0.762	0.981	0.219	-0.871	0.271	0.600	1.273	1.106	1.072	1.034	1.127	1.164
0.761	0.978	0.217	-0.869	0.272	0.597	1.273	1.102	1.064	1.029	1.121	1.160
0.753	0.974	0.221	-0.863	0.266	0.597	1.269	1.096	1.057	1.023	1.115	1.155
0.747	0.973	0.226	-0.860	0.260	0.599	1.262	1.091	1.051	1.018	1.111	1.153
0.750	0.982	0.232	-0.866	0.259	0.607	1.261	1.091	1.053	1.019	1.115	1.156
0.756	0.992	0.236	-0.874	0.260	0.614	1.266	1.098	1.059	1.025	1.124	1.162
0.759	0.995	0.236	-0.877	0.261	0.615	1.271	1.102	1.065	1.030	1.129	1.166
0.757	0.990	0.233	-0.873	0.262	0.611	1.275	1.106	1.068	1.033	1.131	1.168
0.755	0.981	0.226	-0.868	0.264	0.603	1.277	1.107	1.066	1.031	1.127	1.166
0.756	0.977	0.221	-0.866	0.267	0.599	1.274	1.102	1.058	1.025	1.117	1.159
0.755	0.972	0.217	-0.863	0.269	0.594	1.267	1.093	1.046	1.014	1.106	1.148
0.749	0.966	0.217	-0.857	0.266	0.591	1.259	1.086	1.036	1.006	1.100	1.142
0.746	0.970	0.224	-0.858	0.261	0.597	1.255	1.082	1.033	1.002	1.101	1.141
0.748	0.978	0.230	-0.863	0.259	0.604	1.257	1.085	1.039	1.007	1.108	1.149
0.752	0.985	0.233	-0.868	0.259	0.609	1.265	1.094	1.051	1.016	1.119	1.158
0.753	0.985	0.232	-0.869	0.260	0.608	1.272	1.101	1.057	1.021	1.124	1.161
0.753	0.978	0.225	-0.865	0.264	0.601	1.274	1.103	1.056	1.021	1.121	1.159
0.753	0.972	0.219	-0.862	0.267	0.595	1.272	1.098	1.049	1.016	1.113	1.154
0.752	0.966	0.214	-0.859	0.269	0.590	1.267	1.092	1.040	1.008	1.103	1.147
0.749	0.961	0.212	-0.855	0.268	0.586	1.259	1.083	1.030	0.999	1.095	1.139
0.749	0.964	0.215	-0.856	0.267	0.589	1.253	1.077	1.025	0.995	1.094	1.136
0.755	0.972	0.217	-0.863	0.269	0.594	1.254	1.080	1.028	0.998	1.100	1.141
0.759	0.979	0.220	-0.869	0.269	0.599	1.260	1.087	1.036	1.004	1.109	1.148
0.765	0.982	0.217	-0.873	0.274	0.599	1.265	1.093	1.044	1.010	1.115	1.153
0.765	0.975	0.210	-0.870	0.277	0.592	1.267	1.094	1.044	1.010	1.112	1.150
0.759	0.963	0.204	-0.861	0.277	0.583	1.264	1.089	1.038	1.004	1.105	1.146
0.756	0.956	0.200	-0.856	0.278	0.578	1.260	1.083	1.030	0.997	1.097	1.140
0.757	0.955	0.198	-0.856	0.279	0.576	1.256	1.077	1.023	0.990	1.090	1.132
0.761	0.961	0.200	-0.861	0.280	0.580	1.250	1.073	1.017	0.985	1.087	1.129
0.763	0.969	0.206	-0.866	0.278	0.587	1.249	1.074	1.019	0.986	1.091	1.131
0.765	0.978	0.213	-0.871	0.276	0.595	1.254	1.080	1.027	0.993	1.101	1.139
0.764	0.980	0.216	-0.872	0.274	0.598	1.261	1.086	1.034	0.999	1.107	1.144
0.759	0.972	0.213	-0.865	0.273	0.592	1.263	1.089	1.037	1.002	1.107	1.144
0.751	0.957	0.206	-0.854	0.272	0.581	1.262	1.086	1.032	0.998	1.100	1.139
0.746	0.948	0.202	-0.847	0.272	0.575	1.258	1.081	1.025	0.993	1.092	1.135
0.752	0.951	0.199	-0.851	0.276	0.575	1.254	1.075	1.017	0.987	1.085	1.129
0.754	0.953	0.199	-0.853	0.277	0.576	1.248	1.069	1.010	0.980	1.080	1.125
0.755	0.957	0.202	-0.856	0.276	0.579	1.246	1.069	1.012	0.981	1.083	1.127
0.758	0.967	0.209	-0.862	0.274	0.588	1.250	1.074	1.020	0.988	1.094	1.135
0.763	0.977	0.214	-0.870	0.274	0.595	1.260	1.083	1.031	0.998	1.105	1.144
0.771	0.984	0.213	-0.877	0.279	0.598	1.269	1.092	1.040	1.007	1.111	1.150
0.774	0.978	0.204	-0.876	0.285	0.591	1.270	1.093	1.039	1.005	1.107	1.146
0.765	0.962	0.197	-0.863	0.284	0.579	1.265	1.086	1.031	0.998	1.099	1.139
0.758	0.950	0.192	-0.854	0.283	0.571	1.258	1.077	1.021	0.988	1.087	1.130
0.753	0.945	0.192	-0.849	0.280	0.568	1.251	1.070	1.013	0.980	1.080	1.125
0.756	0.952	0.196	-0.854	0.280	0.574	1.248	1.069	1.011	0.978	1.081	1.126
0.763	0.967	0.204	-0.865	0.279	0.585	1.251	1.074	1.017	0.983	1.090	1.132
0.765	0.974	0.209	-0.869	0.278	0.591	1.257	1.081	1.025	0.991	1.099	1.139
0.763	0.973	0.210	-0.868	0.276	0.591	1.262	1.086	1.032	0.998	1.104	1.145
0.761	0.966	0.205	-0.863	0.278	0.585	1.265	1.089	1.035	1.000	1.103	1.144
0.759	0.956	0.197	-0.857	0.281	0.576	1.264	1.086	1.030	0.995	1.095	1.139
0.757	0.949	0.192	-0.853	0.282	0.570	1.260	1.078	1.022	0.986	1.085	1.131
0.754	0.945	0.191	-0.849	0.281	0.568	1.252	1.071	1.013	0.978	1.076	1.123
0.752	0.946	0.194	-0.849	0.279	0.570	1.245	1.066	1.007	0.973	1.073	1.120
0.754	0.953	0.199	-0.853	0.277	0.576	1.244	1.068	1.009	0.974	1.078	1.124
0.757	0.963	0.206	-0.860	0.275	0.584	1.249	1.073	1.017	0.983	1.089	1.132
0.764	0.971	0.207	-0.867	0.278	0.589	1.257	1.082	1.026	0.993	1.098	1.139
0.764	0.968	0.204	-0.866	0.280	0.586	1.262	1.086	1.032	0.996	1.099	1.140
0.757	0.957	0.200	-0.857	0.278	0.578	1.261	1.084	1.028	0.994	1.093	1.136
0.750	0.945	0.195	-0.847	0.277	0.570	1.255	1.075	1.019	0.985	1.082	1.128
0.747	0.941	0.194	-0.844	0.276	0.567	1.249	1.067	1.010	0.977	1.073	1.121
0.751	0.944	0.193	-0.847	0.279	0.568	1.245	1.064	1.004	0.973	1.069	1.116
0.754	0.949	0.195	-0.851	0.279	0.572	1.242	1.063	1.002	0.972	1.072	1.117
0.757	0.961	0.204	-0.859	0.276	0.582	1.246	1.068	1.010	0.979	1.082	1.125
0.763	0.972	0.209	-0.867	0.277	0.590	1.253	1.076	1.021	0.988	1.090	1.133
0.763	0.970	0.207	-0.866	0.278	0.588	1.258	1.082	1.027	0.994	1.097	1.138
0.767	0.968	0.201	-0.867	0.283	0.584	1.262	1.085	1.031	0.997	1.096	1.138
0.772	0.965	0.193	-0.868	0.289	0.579	1.262	1.083	1.027	0.993	1.089	1.134
0.771	0.962	0.191	-0.866	0.290	0.576	1.257	1.076	1.017	0.983	1.079	1.125
0.766	0.957	0.191	-0.861	0.287	0.574	1.248	1.067	1.006	0.973	1.071	1.117
0.762	0.956	0.194	-0.859	0.284	0.575	1.242	1.062	1.001	0.969	1.068	1.113
0.761	0.963	0.202	-0.862	0.279	0.582	1.244	1.066	1.006	0.973	1.075	1.119
0.762	0.972	0.210	-0.867	0.276	0.591	1.253	1.077	1.018	0.984	1.088	1.129
0.768	0.982	0.214	-0.875	0.277	0.598	1.263	1.087	1.031	0.996	1.098	1.138
0.768	0.980	0.212	-0.874	0.278	0.596	1.267	1.090	1.035	1.000	1.099	1.138
0.766	0.974	0.208	-0.870	0.279	0.591	1.269	1.090	1.034	1.000	1.094	1.135
0.763	0.973	0.210	-0.868	0.276	0.591	1.268	1.087	1.030	0.996	1.087	1.131
0.760	0.975	0.215	-0.867	0.272	0.595	1.263	1.079	1.023	0.990	1.081	1.125
0.756	0.981	0.225	-0.868	0.265	0.603	1.258	1.071	1.019	0.987	1.081	1.124
0.757	0.994	0.237	-0.875	0.260	0.615	1.258	1.070	1.023	0.990	1.088	1.130
0.759	1.007	0.248	-0.883	0.255	0.627	1.264	1.078	1.034	1.000	1.100	1.140
0.761	1.015	0.254	-0.888	0.253	0.634	1.272	1.086	1.046	1.011	1.110	1.149
0.762	1.018	0.256	-0.890	0.253	0.637	1.281	1.092	1.054	1.018	1.114	1.152
0.758	1.010	0.252	-0.884	0.253	0.631	1.288	1.095	1.053	1.016	1.108	1.148
0.756	1.006	0.250	-0.881	0.253	0.628	1.290	1.091	1.047	1.010	1.099	1.141
0.755	1.004	0.249	-0.879	0.253	0.626	1.284	1.084	1.038	1.002	1.090	1.134
0.757	1.008	0.251	-0.882	0.253	0.629	1.277	1.078	1.033	0.999	1.087	1.130
0.761	1.021	0.260	-0.891	0.250	0.640	1.272	1.075	1.036	1.003	1.094	1.135
0.768	1.042	0.274	-0.905	0.247	0.658	1.272	1.077	1.047	1.014	1.108	1.147
0.773	1.054	0.281	-0.913	0.246	0.667	1.270	1.078	1.056	1.022	1.118	1.155
0.773	1.054	0.281	-0.913	0.246	0.667	1.262	1.074	1.057	1.027	1.123	1.160
0.773	1.050	0.277	-0.911	0.248	0.663	1.257	1.068	1.054	1.026	1.120	1.158
0.766	1.040	0.274	-0.903	0.246	0.657	1.250	1.059	1.045	1.020	1.112	1.154
0.765	1.040	0.275	-0.902	0.245	0.657	1.244	1.051	1.035	1.011	1.104	1.148
0.767	1.044	0.277	-0.905	0.245	0.660	1.238	1.043	1.029	1.006	1.101	1.145
0.770	1.053	0.283	-0.911	0.243	0.668	1.234	1.041	1.028	1.005	1.102	1.145
0.771	1.057	0.286	-0.914	0.242	0.671	1.233	1.047	1.035	1.012	1.110	1.151
0.769	1.060	0.291	-0.914	0.239	0.675	1.239	1.060	1.046	1.021	1.120	1.157
0.770	1.057	0.287	-0.913	0.241	0.672	1.244	1.067	1.052	1.026	1.123	1.160
0.773	1.046	0.273	-0.909	0.250	0.659	1.246	1.070	1.052	1.025	1.120	1.158
0.776	1.035	0.259	-0.905	0.258	0.647	1.243	1.069	1.047	1.021	1.114	1.153
0.780	1.031	0.251	-0.905	0.264	0.641	1.238	1.066	1.040	1.015	1.107	1.148
0.783	1.032	0.249	-0.907	0.267	0.640	1.233	1.063	1.034	1.010	1.102	1.145
0.786	1.036	0.250	-0.911	0.268	0.643	1.230	1.062	1.033	1.008	1.102	1.145
0.791	1.049	0.258	-0.920	0.266	0.653	1.229	1.064	1.036	1.011	1.109	1.150
0.790	1.056	0.266	-0.923	0.262	0.661	1.232	1.067	1.041	1.016	1.116	1.155
0.785	1.054	0.269	-0.919	0.258	0.661	1.238	1.072	1.047	1.022	1.123	1.162
0.792	1.053	0.261	-0.922	0.265	0.657	1.244	1.078	1.050	1.022	1.122	1.163
0.787	1.033	0.246	-0.910	0.270	0.639	1.242	1.071	1.040	1.013	1.111	1.155
0.780	1.012	0.232	-0.896	0.274	0.622	1.236	1.061	1.028	1.001	1.099	1.147
0.773	0.996	0.223	-0.884	0.275	0.609	1.227	1.048	1.011	0.986	1.085	1.135
0.764	0.983	0.219	-0.873	0.272	0.601	1.218	1.039	0.998	0.976	1.075	1.126
0.758	0.979	0.221	-0.868	0.268	0.600	1.216	1.037	0.992	0.971	1.073	1.120
0.751	0.976	0.225	-0.863	0.263	0.600	1.221	1.043	0.997	0.972	1.076	1.122
0.749	0.974	0.225	-0.861	0.262	0.599	1.230	1.054	1.007	0.979	1.083	1.126
0.753	0.976	0.223	-0.864	0.265	0.599	1.241	1.067	1.017	0.987	1.089	1.131
0.759	0.975	0.216	-0.867	0.271	0.595	1.250	1.076	1.022	0.990	1.087	1.129
0.763	0.965	0.202	-0.864	0.280	0.583	1.250	1.073	1.013	0.981	1.075	1.119
0.756	0.947	0.191	-0.851	0.282	0.569	1.242	1.063	0.998	0.968	1.060	1.108
0.751	0.936	0.185	-0.843	0.283	0.560	1.236	1.057	0.988	0.957	1.050	1.100
0.753	0.938	0.185	-0.845	0.284	0.561	1.231	1.052	0.981	0.950	1.045	1.095
0.756	0.944	0.188	-0.850	0.284	0.566	1.229	1.052	0.981	0.950	1.048	1.097
0.752	0.943	0.191	-0.847	0.280	0.567	1.233	1.059	0.987	0.954	1.055	1.102
0.751	0.941	0.190	-0.846	0.280	0.565	1.238	1.065	0.995	0.961	1.062	1.109
0.753	0.937	0.184	-0.845	0.284	0.560	1.243	1.069	1.000	0.965	1.065	1.111
0.755	0.933	0.178	-0.844	0.288	0.555	1.243	1.067	0.997	0.963	1.060	1.108
0.755	0.928	0.173	-0.841	0.291	0.550	1.238	1.060	0.989	0.956	1.049	1.100
0.753	0.924	0.171	-0.838	0.291	0.547	1.230	1.052	0.978	0.947	1.039	1.092
0.752	0.924	0.172	-0.838	0.290	0.548	1.224	1.047	0.972	0.941	1.036	1.090
0.752	0.929	0.177	-0.840	0.287	0.553	1.223	1.047	0.973	0.942	1.041	1.093
0.752	0.936	0.184	-0.844	0.284	0.560	1.227	1.054	0.981	0.948	1.050	1.100
0.750	0.939	0.189	-0.844	0.280	0.564	1.233	1.061	0.988	0.954	1.057	1.105
0.752	0.938	0.186	-0.845	0.283	0.562	1.237	1.065	0.994	0.958	1.060	1.107
0.752	0.931	0.179	-0.841	0.286	0.555	1.238	1.066	0.993	0.958	1.057	1.104
0.748	0.922	0.174	-0.835	0.287	0.548	1.235	1.060	0.987	0.953	1.048	1.098
0.745	0.916	0.171	-0.830	0.287	0.543	1.229	1.052	0.977	0.944	1.038	1.091
0.741	0.912	0.171	-0.826	0.285	0.541	1.223	1.047	0.969	0.938	1.033	1.086
0.739	0.916	0.177	-0.827	0.281	0.546	1.219	1.044	0.967	0.938	1.034	1.087
0.740	0.926	0.186	-0.833	0.277	0.556	1.221	1.048	0.976	0.943	1.044	1.093
0.743	0.932	0.189	-0.837	0.277	0.560	1.227	1.055	0.985	0.951	1.053	1.100
0.746	0.935	0.189	-0.840	0.278	0.562	1.235	1.064	0.996	0.962	1.064	1.110
0.762	0.945	0.183	-0.853	0.289	0.564	1.243	1.071	1.002	0.969	1.066	1.113
0.766	0.944	0.178	-0.855	0.294	0.561	1.242	1.066	0.997	0.964	1.057	1.107
0.759	0.933	0.174	-0.846	0.292	0.553	1.235	1.058	0.988	0.957	1.047	1.100
0.759	0.933	0.174	-0.846	0.292	0.553	1.229	1.053	0.982	0.950	1.040	1.094
0.757	0.935	0.178	-0.846	0.289	0.556	1.223	1.048	0.978	0.945	1.039	1.092
0.758	0.943	0.185	-0.850	0.286	0.564	1.224	1.052	0.983	0.951	1.046	1.098
0.761	0.953	0.192	-0.857	0.284	0.572	1.228	1.057	0.992	0.959	1.055	1.104
0.759	0.952	0.193	-0.855	0.283	0.572	1.232	1.063	1.000	0.967	1.062	1.111
0.763	0.954	0.191	-0.858	0.286	0.572	1.237	1.070	1.007	0.974	1.066	1.115
0.767	0.951	0.184	-0.859	0.291	0.567	1.239	1.069	1.005	0.973	1.061	1.110
0.762	0.941	0.179	-0.851	0.291	0.560	1.236	1.065	0.999	0.966	1.051	1.102
0.755	0.932	0.177	-0.843	0.289	0.554	1.233	1.065	0.993	0.956	1.039	1.091
0.747	0.927	0.180	-0.837	0.283	0.553	1.239	1.077	0.995	0.952	1.032	1.082
0.747	0.929	0.182	-0.838	0.282	0.555	1.259	1.107	1.015	0.954	1.028	1.074
0.738	0.921	0.183	-0.829	0.277	0.552	1.297	1.157	1.052	0.961	1.028	1.068
0.733	0.919	0.186	-0.826	0.273	0.552	1.351	1.225	1.103	0.973	1.026	1.061
0.731	0.925	0.194	-0.828	0.268	0.559	1.411	1.295	1.152	0.976	1.015	1.049
0.725	0.925	0.200	-0.825	0.262	0.562	1.468	1.372	1.208	0.973	0.999	1.033
0.726	0.933	0.207	-0.829	0.259	0.570	1.518	1.463	1.283	0.978	0.989	1.023
0.739	0.955	0.216	-0.847	0.261	0.585	1.558	1.553	1.366	0.993	0.993	1.024
0.758	0.997	0.239	-0.877	0.259	0.618	1.580	1.628	1.449	1.030	1.018	1.042
0.793	1.041	0.248	-0.917	0.272	0.644	1.573	1.684	1.509	1.084	1.060	1.077
0.833	1.070	0.237	-0.951	0.298	0.653	1.524	1.688	1.535	1.168	1.130	1.134
0.876	1.101	0.225	-0.988	0.325	0.663	1.438	1.629	1.515	1.283	1.230	1.221
0.928	1.163	0.235	-1.045	0.346	0.699	1.310	1.490	1.438	1.427	1.361	1.335
0.987	1.251	0.264	-1.119	0.361	0.757	1.120	1.252	1.277	1.584	1.510	1.467
1.042	1.355	0.313	-1.198	0.364	0.834	0.892	0.940	1.053	1.742	1.673	1.610
1.086	1.477	0.391	-1.281	0.347	0.934	0.661	0.617	0.815	1.892	1.835	1.747
1.123	1.602	0.479	-1.362	0.322	1.040	0.466	0.330	0.598	2.016	1.975	1.862
1.139	1.706	0.567	-1.422	0.286	1.136	0.321	0.099	0.416	2.104	2.079	1.945
1.141	1.772	0.631	-1.456	0.255	1.201	0.223	0.001	0.269	2.151	2.138	1.988
1.114	1.797	0.683	-1.455	0.215	1.240	0.211	0.001	0.161	2.154	2.142	1.982
1.045	1.773	0.728	-1.409	0.158	1.250	0.276	0.001	0.058	2.083	2.068	1.914
0.946	1.689	0.743	-1.317	0.101	1.216	0.395	0.001	0.001	1.890	1.904	1.781
0.829	1.576	0.747	-1.202	0.041	1.161	0.560	0.001	0.001	1.621	1.690	1.616
0.740	1.482	0.742	-1.111	-0.001	1.112	0.722	0.001	0.001	1.393	1.500	1.467
0.682	1.406	0.724	-1.044	-0.021	1.065	0.886	0.085	0.001	1.183	1.331	1.337
0.624	1.333	0.709	-0.978	-0.043	1.021	1.034	0.216	0.001	0.935	1.173	1.225
0.574	1.262	0.688	-0.918	-0.057	0.975	1.170	0.322	0.001	0.706	1.036	1.132
0.534	1.175	0.641	-0.854	-0.054	0.908	1.320	0.422	0.023	0.568	0.956	1.072
0.513	1.097	0.584	-0.805	-0.036	0.840	1.463	0.512	0.124	0.560	0.935	1.046
0.516	1.027	0.511	-0.771	0.002	0.769	1.584	0.605	0.244	0.619	0.940	1.035
0.526	0.960	0.434	-0.743	0.046	0.697	1.668	0.684	0.345	0.667	0.936	1.022
0.530	0.904	0.374	-0.717	0.078	0.639	1.707	0.731	0.416	0.688	0.922	1.006
0.535	0.862	0.327	-0.698	0.104	0.594	1.698	0.751	0.461	0.693	0.906	0.992
0.539	0.832	0.293	-0.685	0.123	0.562	1.689	0.762	0.486	0.684	0.888	0.977
0.537	0.805	0.268	-0.671	0.134	0.536	1.701	0.781	0.509	0.677	0.879	0.968
0.538	0.783	0.245	-0.660	0.146	0.514	1.709	0.814	0.549	0.690	0.887	0.972
0.548	0.769	0.221	-0.658	0.163	0.495	1.706	0.865	0.602	0.716	0.902	0.982
0.561	0.762	0.201	-0.661	0.180	0.481	1.695	0.917	0.653	0.740	0.913	0.989
0.571	0.753	0.182	-0.662	0.194	0.467	1.692	0.970	0.702	0.762	0.921	0.995
0.594	0.761	0.167	-0.677	0.213	0.464	1.687	1.017	0.748	0.784	0.928	1.001
0.617	0.776	0.159	-0.696	0.229	0.467	1.672	1.051	0.787	0.800	0.931	1.004
0.625	0.787	0.162	-0.706	0.231	0.474	1.652	1.081	0.823	0.814	0.934	1.004
0.633	0.805	0.172	-0.719	0.230	0.488	1.627	1.113	0.864	0.835	0.946	1.012
0.653	0.839	0.186	-0.746	0.233	0.512	1.590	1.136	0.914	0.868	0.971	1.032
0.676	0.881	0.205	-0.778	0.235	0.543	1.545	1.153	0.966	0.906	1.002	1.058
0.707	0.923	0.216	-0.815	0.245	0.569	1.498	1.167	1.014	0.942	1.030	1.080
0.732	0.950	0.218	-0.841	0.257	0.584	1.443	1.164	1.044	0.964	1.044	1.093
0.742	0.958	0.216	-0.850	0.263	0.587	1.383	1.147	1.058	0.975	1.049	1.099
0.751	0.967	0.216	-0.859	0.267	0.591	1.340	1.134	1.065	0.979	1.048	1.097
0.756	0.969	0.213	-0.862	0.271	0.591	1.316	1.126	1.064	0.975	1.041	1.092
0.756	0.971	0.215	-0.863	0.270	0.593	1.302	1.122	1.064	0.973	1.039	1.090
0.767	0.985	0.218	-0.876	0.274	0.601	1.296	1.126	1.071	0.977	1.045	1.094
0.772	0.996	0.224	-0.884	0.274	0.610	1.295	1.134	1.085	0.987	1.055	1.102
0.774	1.002	0.228	-0.888	0.273	0.615	1.296	1.143	1.100	0.998	1.064	1.110
0.775	1.002	0.227	-0.888	0.274	0.614	1.296	1.151	1.112	1.007	1.070	1.116
0.773	0.993	0.220	-0.883	0.276	0.606	1.291	1.152	1.115	1.010	1.068	1.114
0.770	0.984	0.214	-0.877	0.278	0.599	1.283	1.147	1.114	1.008	1.062	1.110
0.769	0.982	0.213	-0.875	0.278	0.597	1.272	1.140	1.111	1.004	1.056	1.105
0.770	0.985	0.215	-0.877	0.277	0.600	1.261	1.134	1.108	0.999	1.053	1.101
0.775	0.995	0.220	-0.885	0.277	0.607	1.253	1.133	1.109	0.999	1.055	1.101
0.779	1.007	0.228	-0.893	0.275	0.617	1.251	1.138	1.119	1.007	1.064	1.109
0.787	1.020	0.233	-0.903	0.277	0.626	1.254	1.147	1.134	1.018	1.075	1.118
0.791	1.023	0.232	-0.907	0.279	0.627	1.258	1.154	1.145	1.028	1.083	1.125
0.791	1.018	0.227	-0.904	0.282	0.622	1.260	1.158	1.151	1.033	1.083	1.125
0.788	1.009	0.221	-0.898	0.283	0.615	1.257	1.157	1.152	1.033	1.079	1.123
0.787	1.007	0.220	-0.897	0.283	0.613	1.251	1.153	1.148	1.028	1.072	1.117
0.791	1.011	0.220	-0.901	0.285	0.615	1.244	1.149	1.143	1.023	1.067	1.113
0.796	1.019	0.223	-0.907	0.286	0.621	1.238	1.146	1.142	1.020	1.066	1.111
0.792	1.023	0.231	-0.907	0.280	0.627	1.235	1.148	1.147	1.023	1.072	1.115
0.789	1.031	0.242	-0.910	0.273	0.636	1.238	1.155	1.158	1.032	1.083	1.122
0.787	1.032	0.245	-0.909	0.271	0.638	1.243	1.162	1.168	1.041	1.089	1.128
0.782	1.026	0.244	-0.904	0.269	0.635	1.245	1.166	1.175	1.046	1.092	1.130
0.784	1.021	0.237	-0.902	0.273	0.629	1.247	1.169	1.178	1.047	1.090	1.130
0.790	1.024	0.234	-0.907	0.278	0.629	1.248	1.169	1.177	1.046	1.085	1.127
0.799	1.033	0.234	-0.916	0.282	0.633	1.246	1.165	1.174	1.042	1.079	1.123
0.805	1.041	0.236	-0.923	0.284	0.638	1.242	1.163	1.174	1.039	1.077	1.122
0.807	1.050	0.243	-0.928	0.282	0.646	1.238	1.164	1.176	1.040	1.081	1.122
0.805	1.056	0.251	-0.930	0.277	0.653	1.241	1.169	1.187	1.049	1.092	1.129
0.805	1.061	0.256	-0.933	0.274	0.658	1.248	1.178	1.199	1.059	1.102	1.137
0.805	1.062	0.257	-0.933	0.274	0.659	1.255	1.187	1.211	1.069	1.109	1.144
0.808	1.060	0.252	-0.934	0.278	0.656	1.260	1.191	1.216	1.073	1.107	1.143
0.809	1.056	0.247	-0.932	0.281	0.651	1.257	1.187	1.212	1.068	1.100	1.137
0.808	1.053	0.245	-0.930	0.281	0.649	1.252	1.182	1.206	1.062	1.091	1.130
0.809	1.055	0.246	-0.932	0.281	0.650	1.246	1.177	1.202	1.057	1.086	1.124
0.808	1.060	0.252	-0.934	0.278	0.656	1.242	1.175	1.205	1.056	1.088	1.124
0.809	1.072	0.263	-0.940	0.273	0.667	1.245	1.180	1.214	1.062	1.096	1.130
0.806	1.078	0.272	-0.942	0.267	0.675	1.251	1.188	1.226	1.072	1.106	1.138
0.806	1.079	0.273	-0.942	0.266	0.676	1.259	1.198	1.239	1.084	1.115	1.145
0.807	1.075	0.268	-0.941	0.269	0.671	1.264	1.205	1.246	1.089	1.116	1.145
0.803	1.068	0.265	-0.935	0.269	0.666	1.263	1.203	1.247	1.088	1.111	1.143
0.805	1.067	0.262	-0.936	0.271	0.664	1.260	1.200	1.245	1.086	1.106	1.140
0.811	1.073	0.262	-0.942	0.274	0.667	1.256	1.197	1.244	1.083	1.101	1.135
0.810	1.077	0.267	-0.943	0.271	0.672	1.251	1.195	1.242	1.081	1.099	1.133
0.809	1.083	0.274	-0.946	0.267	0.678	1.249	1.197	1.249	1.086	1.104	1.138
0.808	1.090	0.282	-0.949	0.263	0.686	1.255	1.205	1.263	1.097	1.116	1.147
0.807	1.097	0.290	-0.952	0.258	0.693	1.263	1.215	1.278	1.109	1.128	1.157
0.816	1.105	0.289	-0.960	0.263	0.697	1.272	1.226	1.292	1.122	1.137	1.164
0.827	1.111	0.284	-0.969	0.271	0.697	1.276	1.231	1.300	1.128	1.137	1.165
0.828	1.108	0.280	-0.968	0.274	0.694	1.273	1.228	1.298	1.124	1.129	1.158
0.817	1.098	0.281	-0.957	0.268	0.689	1.265	1.222	1.294	1.117	1.122	1.152
0.819	1.105	0.286	-0.962	0.266	0.695	1.262	1.222	1.296	1.118	1.122	1.153
0.832	1.123	0.291	-0.977	0.270	0.707	1.262	1.227	1.304	1.125	1.129	1.159
0.834	1.133	0.299	-0.983	0.267	0.716	1.267	1.235	1.318	1.136	1.141	1.167
0.826	1.133	0.307	-0.979	0.259	0.720	1.272	1.244	1.333	1.148	1.151	1.175
0.823	1.132	0.309	-0.977	0.257	0.720	1.277	1.253	1.346	1.157	1.158	1.179
0.819	1.124	0.305	-0.971	0.257	0.714	1.278	1.258	1.352	1.160	1.156	1.176
0.811	1.112	0.301	-0.961	0.255	0.706	1.274	1.254	1.352	1.159	1.148	1.171
0.809	1.110	0.301	-0.959	0.254	0.705	1.269	1.252	1.353	1.159	1.144	1.168
0.818	1.124	0.306	-0.971	0.256	0.715	1.268	1.254	1.358	1.162	1.146	1.169
0.834	1.145	0.311	-0.989	0.261	0.728	1.268	1.260	1.366	1.167	1.153	1.173
0.841	1.160	0.319	-1.000	0.261	0.739	1.270	1.269	1.381	1.180	1.166	1.182
0.846	1.175	0.329	-1.010	0.258	0.752	1.279	1.284	1.401	1.197	1.181	1.196
0.852	1.184	0.332	-1.018	0.260	0.758	1.289	1.298	1.419	1.212	1.192	1.205
0.854	1.183	0.329	-1.018	0.262	0.756	1.292	1.306	1.428	1.220	1.194	1.206
0.851	1.176	0.325	-1.013	0.263	0.750	1.290	1.306	1.431	1.223	1.191	1.204
0.851	1.175	0.324	-1.013	0.263	0.749	1.286	1.306	1.432	1.224	1.188	1.201
0.854	1.179	0.325	-1.016	0.264	0.752	1.279	1.304	1.432	1.223	1.184	1.197
0.850	1.178	0.328	-1.014	0.261	0.753	1.272	1.301	1.431	1.221	1.183	1.195
0.847	1.183	0.336	-1.015	0.255	0.759	1.270	1.306	1.440	1.229	1.192	1.201
0.848	1.194	0.346	-1.021	0.251	0.770	1.274	1.317	1.455	1.242	1.206	1.212
0.850	1.201	0.351	-1.025	0.249	0.776	1.282	1.329	1.471	1.259	1.220	1.224
0.860	1.212	0.352	-1.036	0.254	0.782	1.292	1.343	1.486	1.275	1.231	1.233
0.869	1.217	0.348	-1.043	0.260	0.782	1.295	1.348	1.491	1.280	1.230	1.233
0.868	1.211	0.343	-1.039	0.262	0.777	1.291	1.346	1.488	1.278	1.224	1.229
0.864	1.205	0.341	-1.034	0.261	0.773	1.283	1.342	1.482	1.274	1.217	1.222
0.861	1.206	0.345	-1.033	0.258	0.775	1.275	1.338	1.477	1.273	1.214	1.219
0.865	1.214	0.349	-1.039	0.258	0.781	1.271	1.337	1.478	1.275	1.217	1.219
0.864	1.219	0.355	-1.041	0.254	0.787	1.273	1.342	1.485	1.283	1.226	1.227
0.864	1.227	0.363	-1.045	0.250	0.795	1.280	1.353	1.496	1.295	1.238	1.237
0.867	1.228	0.361	-1.047	0.253	0.794	1.287	1.362	1.503	1.302	1.244	1.243
0.869	1.224	0.355	-1.046	0.257	0.789	1.290	1.365	1.502	1.302	1.242	1.242
0.871	1.219	0.348	-1.045	0.261	0.783	1.289	1.362	1.497	1.300	1.235	1.238
0.872	1.216	0.344	-1.044	0.264	0.780	1.283	1.355	1.487	1.291	1.225	1.229
0.866	1.212	0.346	-1.039	0.260	0.779	1.275	1.346	1.474	1.281	1.217	1.222
0.863	1.215	0.352	-1.039	0.255	0.783	1.269	1.339	1.465	1.276	1.215	1.220
0.862	1.222	0.360	-1.042	0.251	0.791	1.268	1.340	1.465	1.278	1.223	1.226
0.862	1.229	0.367	-1.045	0.247	0.798	1.273	1.345	1.468	1.284	1.231	1.233
0.864	1.233	0.369	-1.048	0.247	0.801	1.278	1.349	1.469	1.289	1.237	1.238
0.869	1.233	0.364	-1.051	0.252	0.798	1.282	1.350	1.464	1.288	1.237	1.239
0.871	1.229	0.358	-1.050	0.256	0.793	1.282	1.343	1.453	1.282	1.231	1.236
0.873	1.225	0.352	-1.049	0.260	0.788	1.276	1.331	1.435	1.270	1.219	1.225
0.866	1.216	0.350	-1.041	0.258	0.783	1.267	1.315	1.414	1.254	1.206	1.214
0.858	1.212	0.354	-1.035	0.252	0.783	1.259	1.303	1.397	1.243	1.200	1.209
0.859	1.219	0.360	-1.039	0.249	0.789	1.259	1.299	1.389	1.240	1.202	1.211
0.854	1.219	0.365	-1.036	0.244	0.792	1.262	1.296	1.384	1.238	1.206	1.214
0.850	1.218	0.368	-1.034	0.241	0.793	1.266	1.295	1.380	1.239	1.211	1.217
0.853	1.216	0.363	-1.034	0.245	0.789	1.271	1.291	1.372	1.237	1.210	1.217
0.850	1.205	0.355	-1.027	0.247	0.780	1.272	1.282	1.357	1.226	1.200	1.210
0.846	1.196	0.350	-1.021	0.248	0.773	1.268	1.268	1.335	1.210	1.184	1.200
0.842	1.187	0.345	-1.014	0.248	0.766	1.260	1.251	1.311	1.192	1.169	1.187
0.831	1.176	0.345	-1.003	0.243	0.760	1.251	1.234	1.288	1.173	1.155	1.176
0.830	1.178	0.348	-1.004	0.241	0.763	1.248	1.225	1.272	1.162	1.151	1.172
0.825	1.176	0.351	-1.000	0.237	0.763	1.249	1.219	1.263	1.154	1.153	1.172
0.821	1.176	0.355	-0.998	0.233	0.765	1.256	1.218	1.258	1.152	1.157	1.177
0.824	1.175	0.351	-0.999	0.236	0.763	1.262	1.215	1.250	1.147	1.154	1.175
0.819	1.161	0.342	-0.990	0.238	0.751	1.264	1.207	1.236	1.136	1.143	1.166
0.811	1.145	0.334	-0.978	0.238	0.739	1.260	1.193	1.215	1.120	1.129	1.157
0.805	1.132	0.327	-0.968	0.239	0.729	1.254	1.177	1.193	1.101	1.114	1.145
0.807	1.129	0.322	-0.968	0.242	0.725	1.247	1.162	1.171	1.083	1.101	1.134
0.803	1.127	0.324	-0.965	0.239	0.725	1.240	1.150	1.155	1.070	1.095	1.128
0.805	1.131	0.326	-0.968	0.239	0.728	1.241	1.147	1.149	1.065	1.097	1.131
0.805	1.132	0.327	-0.968	0.239	0.729	1.246	1.147	1.146	1.065	1.100	1.134
0.805	1.127	0.322	-0.966	0.241	0.724	1.251	1.146	1.143	1.064	1.100	1.135
0.798	1.112	0.314	-0.955	0.242	0.713	1.254	1.141	1.135	1.058	1.095	1.131
0.792	1.098	0.306	-0.945	0.243	0.702	1.253	1.134	1.121	1.047	1.085	1.124
0.789	1.088	0.299	-0.938	0.245	0.693	1.248	1.122	1.106	1.033	1.074	1.114
0.789	1.082	0.293	-0.935	0.248	0.687	1.241	1.110	1.090	1.018	1.062	1.105
0.790	1.082	0.292	-0.936	0.249	0.687	1.235	1.102	1.077	1.007	1.055	1.099
0.790	1.084	0.294	-0.937	0.248	0.689	1.233	1.098	1.072	1.004	1.056	1.100
0.790	1.087	0.297	-0.938	0.246	0.692	1.236	1.100	1.072	1.005	1.061	1.105
0.785	1.082	0.297	-0.933	0.244	0.689	1.240	1.102	1.074	1.007	1.064	1.108
0.779	1.071	0.292	-0.925	0.243	0.681	1.243	1.102	1.072	1.004	1.063	1.107
0.769	1.055	0.286	-0.912	0.241	0.670	1.241	1.097	1.064	0.997	1.054	1.101
0.763	1.042	0.279	-0.902	0.242	0.660	1.236	1.087	1.052	0.988	1.044	1.093
0.765	1.040	0.275	-0.902	0.245	0.657	1.231	1.079	1.042	0.980	1.036	1.087
0.775	1.049	0.274	-0.912	0.250	0.661	1.228	1.074	1.035	0.975	1.033	1.086
0.792	1.068	0.276	-0.930	0.258	0.672	1.230	1.074	1.035	0.975	1.037	1.087
0.793	1.071	0.278	-0.932	0.257	0.674	1.232	1.076	1.036	0.976	1.042	1.090
0.785	1.067	0.282	-0.926	0.251	0.674	1.236	1.080	1.042	0.981	1.050	1.096
0.788	1.068	0.280	-0.928	0.254	0.674	1.243	1.085	1.049	0.986	1.055	1.101
0.789	1.062	0.273	-0.925	0.258	0.667	1.247	1.086	1.049	0.985	1.052	1.098
0.783	1.047	0.264	-0.915	0.259	0.655	1.242	1.077	1.040	0.977	1.040	1.089
0.771	1.031	0.260	-0.901	0.255	0.645	1.233	1.066	1.028	0.965	1.028	1.080
0.766	1.027	0.261	-0.896	0.252	0.644	1.226	1.059	1.018	0.957	1.020	1.073
0.764	1.027	0.263	-0.895	0.250	0.645	1.221	1.055	1.012	0.952	1.019	1.071
0.769	1.038	0.269	-0.903	0.250	0.653	1.222	1.057	1.018	0.958	1.029	1.080
0.782	1.059	0.277	-0.920	0.252	0.668	1.234	1.068	1.031	0.969	1.042	1.092
0.789	1.064	0.275	-0.926	0.257	0.669	1.242	1.076	1.042	0.977	1.050	1.098
0.785	1.057	0.272	-0.921	0.256	0.664	1.247	1.080	1.046	0.980	1.050	1.099
0.783	1.051	0.268	-0.917	0.257	0.659	1.247	1.078	1.043	0.977	1.045	1.095
0.786	1.047	0.261	-0.916	0.262	0.654	1.242	1.072	1.034	0.969	1.035	1.087
0.779	1.035	0.256	-0.907	0.261	0.645	1.233	1.062	1.024	0.958	1.023	1.076
0.771	1.030	0.259	-0.900	0.256	0.644	1.226	1.055	1.019	0.952	1.020	1.073
0.777	1.043	0.266	-0.910	0.255	0.654	1.227	1.059	1.023	0.956	1.027	1.079
0.785	1.057	0.272	-0.921	0.256	0.664	1.232	1.068	1.033	0.965	1.037	1.087
0.785	1.061	0.276	-0.923	0.254	0.668	1.239	1.076	1.042	0.972	1.045	1.094
0.782	1.056	0.274	-0.919	0.254	0.665	1.244	1.080	1.048	0.977	1.047	1.096
0.777	1.046	0.269	-0.911	0.254	0.657	1.244	1.080	1.048	0.976	1.042	1.092
0.772	1.036	0.264	-0.904	0.254	0.650	1.240	1.076	1.042	0.970	1.035	1.086
0.770	1.033	0.263	-0.901	0.253	0.648	1.233	1.069	1.033	0.962	1.026	1.077
0.774	1.041	0.267	-0.907	0.253	0.654	1.228	1.066	1.029	0.958	1.023	1.075
0.787	1.059	0.272	-0.923	0.257	0.665	1.230	1.069	1.032	0.961	1.029	1.080
0.792	1.070	0.278	-0.931	0.257	0.674	1.233	1.075	1.039	0.968	1.037	1.086
0.783	1.066	0.283	-0.924	0.250	0.674	1.235	1.078	1.046	0.972	1.042	1.089
0.772	1.057	0.285	-0.914	0.243	0.671	1.239	1.082	1.052	0.977	1.047	1.093
0.775	1.055	0.280	-0.915	0.247	0.667	1.243	1.087	1.055	0.980	1.045	1.093
0.773	1.047	0.274	-0.910	0.249	0.660	1.240	1.083	1.051	0.975	1.038	1.088
0.777	1.048	0.271	-0.912	0.253	0.659	1.236	1.079	1.046	0.971	1.032	1.083
0.786	1.056	0.270	-0.921	0.258	0.663	1.233	1.076	1.042	0.968	1.028	1.080
0.790	1.062	0.272	-0.926	0.259	0.667	1.229	1.073	1.039	0.965	1.027	1.076
0.785	1.063	0.278	-0.924	0.253	0.670	1.228	1.075	1.043	0.967	1.032	1.081
0.783	1.069	0.286	-0.926	0.248	0.677	1.234	1.085	1.054	0.976	1.042	1.091
0.784	1.071	0.287	-0.927	0.248	0.679	1.240	1.093	1.062	0.984	1.049	1.097
0.782	1.068	0.286	-0.925	0.248	0.677	1.243	1.096	1.067	0.987	1.050	1.098
0.785	1.064	0.279	-0.924	0.253	0.671	1.242	1.095	1.065	0.986	1.046	1.095
0.786	1.061	0.275	-0.923	0.255	0.668	1.239	1.090	1.058	0.980	1.038	1.089
0.785	1.058	0.273	-0.921	0.256	0.665	1.233	1.084	1.050	0.974	1.031	1.084
0.787	1.063	0.276	-0.925	0.255	0.669	1.229	1.080	1.048	0.971	1.031	1.083
0.795	1.078	0.283	-0.936	0.256	0.680	1.229	1.083	1.051	0.973	1.037	1.086
0.793	1.083	0.290	-0.938	0.251	0.686	1.232	1.087	1.057	0.978	1.044	1.091
0.786	1.078	0.292	-0.932	0.247	0.685	1.236	1.094	1.065	0.985	1.052	1.098
0.786	1.074	0.288	-0.930	0.249	0.681	1.241	1.100	1.071	0.992	1.055	1.102
0.787	1.069	0.282	-0.928	0.252	0.675	1.242	1.100	1.069	0.991	1.052	1.098
0.783	1.061	0.278	-0.922	0.252	0.669	1.237	1.094	1.061	0.985	1.041	1.090
0.785	1.060	0.275	-0.922	0.255	0.667	1.230	1.088	1.053	0.979	1.034	1.085
0.791	1.065	0.274	-0.928	0.258	0.669	1.226	1.085	1.049	0.975	1.031	1.082
0.790	1.069	0.279	-0.929	0.255	0.674	1.224	1.084	1.048	0.974	1.033	1.081
0.787	1.073	0.286	-0.930	0.250	0.679	1.225	1.087	1.053	0.978	1.041	1.087
0.793	1.085	0.292	-0.939	0.250	0.688	1.233	1.098	1.065	0.989	1.054	1.098
0.799	1.089	0.290	-0.944	0.254	0.689	1.240	1.105	1.072	0.996	1.061	1.103
0.795	1.079	0.284	-0.937	0.255	0.681	1.242	1.106	1.072	0.996	1.058	1.102
0.794	1.071	0.277	-0.932	0.258	0.674	1.240	1.102	1.067	0.992	1.052	1.098
0.796	1.069	0.273	-0.932	0.261	0.671	1.235	1.095	1.058	0.985	1.043	1.091
0.796	1.070	0.274	-0.933	0.261	0.672	1.229	1.090	1.050	0.977	1.036	1.085
0.795	1.073	0.278	-0.934	0.258	0.675	1.224	1.086	1.044	0.972	1.033	1.083
0.794	1.077	0.283	-0.935	0.255	0.680	1.223	1.087	1.046	0.975	1.039	1.088
0.794	1.083	0.289	-0.938	0.252	0.686	1.227	1.093	1.053	0.982	1.049	1.095
0.797	1.089	0.292	-0.943	0.252	0.690	1.235	1.101	1.063	0.989	1.056	1.102
0.799	1.087	0.288	-0.943	0.255	0.687	1.241	1.104	1.067	0.993	1.057	1.104
0.797	1.076	0.279	-0.936	0.259	0.677	1.240	1.100	1.061	0.988	1.050	1.099
0.792	1.066	0.274	-0.929	0.259	0.670	1.235	1.091	1.051	0.980	1.040	1.091
0.788	1.061	0.273	-0.924	0.257	0.667	1.227	1.083	1.040	0.971	1.031	1.083
0.790	1.065	0.275	-0.927	0.257	0.670	1.222	1.079	1.034	0.967	1.029	1.081
0.799	1.078	0.279	-0.938	0.260	0.678	1.222	1.081	1.036	0.970	1.034	1.085
0.799	1.084	0.285	-0.941	0.257	0.684	1.225	1.087	1.041	0.975	1.042	1.090
0.793	1.081	0.288	-0.937	0.252	0.684	1.230	1.092	1.049	0.982	1.049	1.096
0.791	1.075	0.284	-0.933	0.253	0.679	1.235	1.097	1.054	0.987	1.052	1.099
0.788	1.064	0.276	-0.926	0.256	0.670	1.236	1.095	1.051	0.984	1.047	1.096
0.787	1.056	0.269	-0.921	0.259	0.662	1.234	1.090	1.044	0.979	1.040	1.092
